recording,start_sample,start_time_sec,resp_mean,resp_std,resp_range,resp_change,ppg_mean,ppg_std,ppg_range,ppg_change,resp_variability,ppg_variability,physiological_change
bidmc_01,0,0.0,0.44497123680000006,0.3301403676974751,0.998045,-0.025889379199999896,0.468615968,0.06597923430825017,0.24438000000000004,-0.0034457599999999644,0.7419347554617481,0.1407956578905828,0.01466756959999993
bidmc_01,625,5.0,0.456604543536,0.3676646987319747,1.0,0.049155992671999826,0.4662995199999999,0.06439377755225734,0.23460999999999999,-0.001187136000000033,0.8052129544567982,0.13809501553259548,0.02517156433599993
bidmc_01,1250,10.0,0.442552555552,0.36863120407865907,1.0,-0.0772599686399999,0.46741872,0.06462783546399802,0.25318,0.003425536000000007,0.8329640547546001,0.13826510243084741,0.04034275231999995
bidmc_01,1875,15.0,0.42653914961600004,0.32730073074798943,1.0,0.04523315676800005,0.468144456,0.06870606648778595,0.26687,-0.0019740639999999976,0.7673386222672062,0.14676222017582918,0.023603610384000023
bidmc_01,2500,20.0,0.4517098296,0.3098757263896205,0.936461,0.005108203199999828,0.46722559999999996,0.07255434835211463,0.26589,0.00013635200000000625,0.6860046429792759,0.15528728105830156,0.002622277599999917
bidmc_01,3125,25.0,0.4581935096,0.2933854880059399,0.926686,0.0078591568000001,0.462770568,0.07481948241840072,0.27174999999999994,-0.009046415999999946,0.6403077336349207,0.16167692138424702,0.008452786400000023
bidmc_01,3750,30.0,0.451300784,0.27831589131522,0.89932,-0.021644608000000065,0.460285288,0.07386366973253533,0.27174999999999994,0.004075855999999989,0.6166957481276432,0.16047332205676162,0.012860232000000027
bidmc_01,4375,35.0,0.42558669599999993,0.2575264511103347,0.88563,-0.029783567999999927,0.46491155199999995,0.07277045707587178,0.29716000000000004,0.005176671999999993,0.6051078391851223,0.15652504274797852,0.01748011999999996
bidmc_01,5000,40.0,0.37525566400000004,0.22419716061877124,0.8377300000000001,-0.07087849600000007,0.46521812800000006,0.06830999897654527,0.29912000000000005,-0.004563519999999988,0.5974501777769128,0.14683402909552176,0.03772100800000003
bidmc_01,5625,45.0,0.359951664,0.21657924015775634,0.7947200000000001,0.040270496000000044,0.46871848800000004,0.06066845624963483,0.23363,0.011564239999999892,0.6016881157400084,0.12943446518194446,0.02591736799999997
bidmc_01,6250,50.0,0.404881352,0.23758812730675768,0.79179,0.04958888,0.47208182400000004,0.05854800844190197,0.20233999999999996,-0.004837567999999959,0.5868078125241618,0.12402062829954172,0.02721322399999998
bidmc_01,6875,55.0,0.39499745599999997,0.23281898888039193,0.78788,-0.06935667199999995,0.47278724,0.0568785490769798,0.1955,0.006248400000000043,0.5894174656733139,0.1203044920850396,0.037802536
bidmc_01,7500,60.0,0.380778136,0.23520735426216058,0.7859200000000001,0.04091803199999999,0.47532652,0.06162857266925464,0.23558,-0.0011698400000000886,0.6177002152296511,0.12965496436910415,0.02104393600000004
bidmc_01,8125,65.0,0.4225712,0.25453038852726406,0.8827,0.04266809599999999,0.4718927680000001,0.06582720805030527,0.24046999999999996,-0.00569766399999988,0.6023358577002086,0.13949581985220297,0.024182879999999934
bidmc_01,8750,70.0,0.46355252799999996,0.2832227570192925,0.89052,0.03929455999999998,0.47001039999999994,0.06633324517796486,0.24731999999999998,0.0019329280000000004,0.6109817742974712,0.14113114102756844,0.02061374399999999
bidmc_01,9375,75.0,0.47671003679999996,0.30807783238301883,0.929619,-0.012979542399999988,0.46794904000000004,0.0667542063756165,0.23950000000000005,-0.006055648000000136,0.6462569745627061,0.1426524215611062,0.009517595200000062
bidmc_01,10000,80.0,0.45336313679999996,0.31817378400890245,0.956012,-0.033714257600000075,0.47196705600000005,0.06495249202896579,0.23461000000000004,0.014091680000000106,0.7018062484048309,0.13762052580305517,0.02390296880000009
bidmc_01,10625,85.0,0.45918674719999997,0.3132729257735933,0.956012,0.045361478400000044,0.46991956799999995,0.0579917563339254,0.22775999999999996,-0.01818665600000008,0.6822327635783948,0.12340757200890472,0.03177406720000006
bidmc_01,11250,90.0,0.4565950192,0.3026339493209809,0.916911,-0.05054493440000002,0.480354544,0.056345916721551925,0.19648,0.03905660800000005,0.6628046163241297,0.11730044011223471,0.044800771200000034
bidmc_01,11875,95.0,0.42991888,0.296492349365802,0.905181,-0.0028073439999999894,0.5053527200000001,0.05638376278718547,0.26980000000000004,0.010939744000000029,0.6896455901639208,0.11157286580810259,0.006873544000000009
bidmc_01,12500,100.0,0.44722574880000004,0.3012623637089919,0.911046,0.03742108160000007,0.48537576,0.05616572824296325,0.2786,-0.050893664000000005,0.6736233119269808,0.11571573439767338,0.04415737280000004
bidmc_01,13125,105.0,0.47743734480000005,0.3133558871682948,0.911046,0.023002110399999942,0.431106904,0.06812633053449146,0.35092999999999996,-0.05764404800000006,0.6563274411894174,0.1580261690922082,0.0403230792
bidmc_01,13750,110.0,0.5015522552,0.3276030053805631,0.921799,0.025227710399999936,0.460048448,0.08553775570770661,0.38808,0.11552713599999997,0.6531769098974897,0.18593165599821915,0.07037742319999996
bidmc_01,14375,115.0,0.47088870079999995,0.33716361474440043,0.938416,-0.08655481919999986,0.499970512,0.050444525167929334,0.19942,-0.03568300799999985,0.7160139926007922,0.10089479891792183,0.06111891359999985
bidmc_01,15000,120.0,0.445468584,0.33254523732771113,0.938416,0.035714585599999904,0.474644096,0.052260734344848084,0.21603000000000006,-0.014969824000000076,0.7465049226070419,0.11010486526726505,0.02534220479999999
bidmc_01,15625,125.0,0.4954860184,0.3321422676020389,0.915934,0.0643202832000001,0.46813052,0.0585426076013838,0.24046999999999996,0.0019426720000000341,0.6703349538290122,0.12505589796940783,0.03313147760000007
bidmc_01,16250,130.0,0.47732455119999995,0.31839265169461084,0.912023,-0.10064321760000006,0.46634834399999997,0.06384003476485318,0.23949999999999994,-0.0055070239999999715,0.6670345865503521,0.13689315871505373,0.053075120800000014
bidmc_01,16875,135.0,0.440012544,0.3136843470386829,0.916911,0.026019203199999896,0.4662739600000001,0.06571736862472811,0.24927,0.00535825599999995,0.7128970262758161,0.140941234812884,0.015688729599999923
bidmc_01,17500,140.0,0.45938223519999993,0.32231432355876816,0.922776,0.01272017920000007,0.4683251279999999,0.06485911872746665,0.24927,-0.001255919999999966,0.7016240447225799,0.1384913521789813,0.006988049600000018
bidmc_01,18125,145.0,0.48267058640000005,0.3168470372929817,0.922776,0.03385652319999999,0.463596152,0.06372543208729851,0.22874000000000005,-0.008202032000000026,0.6564443530976857,0.1374586358272074,0.021029277600000007
bidmc_01,18750,150.0,0.501820428,0.3262272656484593,0.916911,0.0044431600000000016,0.46268679199999996,0.06469426644292936,0.24438000000000004,0.006383311999999974,0.6500863602987859,0.13982272184723943,0.005413235999999988
bidmc_01,19375,155.0,0.484187564,0.33824415856338735,0.924731,-0.03970888799999994,0.4699580239999999,0.06702442306275694,0.26295999999999997,0.008159151999999947,0.6985794042078767,0.14261758927892607,0.023934019999999945
bidmc_01,20000,160.0,0.4530243912,0.32967439678809357,0.924731,-0.022617457600000113,0.4706164159999999,0.06635500545124644,0.27273,-0.006842367999999932,0.7277172608688287,0.14099564358503563,0.014729912800000022
bidmc_01,20625,165.0,0.4768929528,0.33111055990259475,0.930596,0.07035458080000012,0.46853484,0.06634502509046478,0.26784,0.00267921600000004,0.6943064762271289,0.1416007473205567,0.03651689840000008
bidmc_01,21250,170.0,0.513320724,0.3408421957266486,0.930596,0.002500961600000018,0.46559441600000007,0.06648198889096914,0.25611,-0.00856006400000009,0.6639933199605801,0.1427891826387078,0.005530512800000054
bidmc_01,21875,175.0,0.4681688384,0.3331293124682358,0.925709,-0.09280473280000001,0.4650055679999999,0.06482853115008373,0.23459999999999998,0.007382368000000028,0.7115565445367568,0.1394142268332084,0.05009355040000002
bidmc_01,22500,180.0,0.4507806904,0.33629412147161325,0.929619,0.05802843679999997,0.4682274719999999,0.06604638518018391,0.25807,-0.0009385600000000327,0.746024358649535,0.14105589285946696,0.029483498400000002
bidmc_01,23125,185.0,0.486360832,0.341058122678885,0.929619,0.01313184639999998,0.46531442399999995,0.06530227751271944,0.25807,-0.004887535999999915,0.7012436014487359,0.1403398085353806,0.009009691199999947
bidmc_01,23750,190.0,0.5029615728,0.32463706133523057,0.917889,0.02006963519999999,0.464615272,0.06483891072223542,0.24242000000000002,0.0034892319999998977,0.6454497389894666,0.13955368038043106,0.011779433599999944
bidmc_01,24375,195.0,0.500440224,0.3364803685334421,0.908113,-0.02511233279999997,0.46533936000000004,0.06328674843717601,0.24242000000000002,-0.00204105599999993,0.6723674077926124,0.13600098740022465,0.01357669439999995
bidmc_01,25000,200.0,0.4495951752,0.3215336351691557,0.913001,-0.0765777648,0.466076728,0.06331981480779943,0.23557999999999996,0.003515791999999962,0.7151609664520022,0.13585677024197867,0.04004677839999998
bidmc_01,25625,205.0,0.4445981184,0.3214897260136522,0.926686,0.06658365119999998,0.46693692000000003,0.06623202305859002,0.24340999999999996,-0.0017954079999999428,0.7231002327908624,0.14184331625623814,0.03418952959999996
bidmc_01,26250,210.0,0.5012541735999999,0.34046235640715566,0.926686,0.04672845919999996,0.46401000000000003,0.06529229061872466,0.24340999999999996,-0.004058432000000112,0.6792196357036377,0.14071280771086173,0.025393445600000036
bidmc_01,26875,215.0,0.5072882888,0.34106775455447413,0.909091,-0.03466022879999997,0.46210036,0.06501172294863751,0.22189000000000003,0.00023915200000013126,0.6723338380774306,0.14068714913247066,0.01744969040000005
bidmc_01,27500,220.0,0.4441985608,0.3262816130864329,0.909091,-0.0915192272,0.461948568,0.06605159758332402,0.24535999999999997,-0.0005427359999999881,0.7345383514085476,0.1429844341435211,0.04603098159999999
bidmc_01,28125,225.0,0.4554477312000001,0.3212123778964014,0.914956,0.11401756800000001,0.4628666880000001,0.0662461700887731,0.24535999999999997,0.0023789759999999216,0.7052657212373443,0.1431211808605942,0.05819827199999997
bidmc_01,28750,230.0,0.5170204056000001,0.3352119824778647,0.914956,0.009127780799999985,0.46011628,0.06399022880535433,0.23167,-0.007879792000000052,0.6483522323197689,0.13907373529930095,0.008503786400000019
bidmc_01,29375,235.0,0.4912883608,0.3390705792514712,0.924731,-0.06059187039999997,0.46168647199999996,0.06407235677351986,0.23558,0.011020175999999993,0.6901647100587309,0.13877863416124894,0.03580602319999998
bidmc_01,30000,240.0,0.4357113928,0.32584332008470346,0.924731,-0.050562065600000095,0.466925184,0.0657050667940163,0.25122,-0.0005427519999999242,0.7478403769760837,0.140718317039201,0.02555240880000001
bidmc_01,30625,245.0,0.4677057264,0.3189579075720412,0.910068,0.1145507328,0.46365491999999997,0.0650068468076525,0.23656,-0.005997776000000066,0.681961343654606,0.14020493215670038,0.06027425440000003
bidmc_01,31250,250.0,0.5125784944,0.33075301472110025,0.911046,-0.02480519680000004,0.461897832,0.06422530535310654,0.24535,0.0024836000000000302,0.6452716472949492,0.13904626057401795,0.013644398400000035
bidmc_01,31875,255.0,0.44047545599999993,0.3192870734413081,0.913978,-0.11940087999999993,0.46189154400000004,0.06513869683756396,0.23362,-0.0024961760000000166,0.7248675135574287,0.1410256512769428,0.060948527999999974
bidmc_01,32500,260.0,0.43976455200000003,0.32170766137234236,0.913978,0.11797907200000007,0.4627462399999999,0.06559583593325419,0.22970999999999997,0.004205567999999993,0.7315435688613062,0.14175305709711894,0.06109232000000003
bidmc_01,33125,265.0,0.510443724,0.3417151207875704,0.912023,0.02337927199999995,0.461982928,0.06576337295780088,0.24241999999999997,-0.005732191999999858,0.6694458865394607,0.1423499151637173,0.014555731999999905
bidmc_01,33750,270.0,0.47686731520000003,0.33056587922601066,0.906158,-0.09053208960000003,0.46185704800000005,0.06539956791910552,0.24145000000000005,0.005480431999999924,0.6932016002937212,0.1416010139961998,0.04800626079999998
bidmc_01,34375,275.0,0.44556637680000005,0.3248896487260295,0.915934,0.02793021280000002,0.46826103999999996,0.0657991517881378,0.26100000000000007,0.007327552000000015,0.7291594170545869,0.14051780022172589,0.017628882400000018
bidmc_01,35000,280.0,0.49217116000000005,0.33250460222180145,0.915934,0.06527935360000009,0.4647998160000001,0.06578250189135515,0.26100000000000007,-0.01425000000000004,0.6755859620783944,0.1415283700606824,0.039764676800000065
bidmc_01,35625,285.0,0.5127147504,0.33032580867131545,0.917889,-0.024192172800000078,0.46016468800000004,0.06334907432648607,0.2434,0.004979743999999953,0.6442669420894689,0.13766579294909548,0.014585958400000015
bidmc_01,36250,290.0,0.47518748639999997,0.3355173928053379,0.926686,-0.05086235519999999,0.46392473599999995,0.06456273792560462,0.24241999999999997,0.002540351999999968,0.7060722269329334,0.13916610551134553,0.026701353599999977
bidmc_01,36875,295.0,0.43616805519999996,0.3285231119939773,0.926686,-0.027176507200000033,0.465590424,0.06634832925990092,0.24046999999999996,0.000791024000000029,0.7532013288823003,0.14250333197696727,0.013983765600000031
bidmc_01,37500,300.0,0.4711342424,0.3317768531747199,0.921799,0.09710888160000009,0.46604318399999994,0.06696816579675857,0.24829,0.00011449600000007498,0.7042072494611579,0.1436948857981212,0.04861168880000008
bidmc_01,38125,305.0,0.5163142984,0.34256962226918336,0.901271,-0.0067487696000000374,0.46478344,0.06610554418508632,0.25416,-0.002633984000000089,0.6634891960992945,0.1422283934141305,0.004691376800000063
bidmc_01,38750,310.0,0.4618987128,0.326060507160815,0.925709,-0.1020824016000001,0.4626844319999999,0.06642453781214722,0.24242999999999998,-0.0015640319999999375,0.7059119071199713,0.1435630629756833,0.051823216800000016
bidmc_01,39375,315.0,0.450823816,0.32420527028870294,0.925709,0.07993260800000013,0.46412030400000004,0.06788629672553648,0.23656,0.004435776000000002,0.7191380305220442,0.14626843486920926,0.042184192000000065
bidmc_01,40000,320.0,0.5096038472000001,0.3436172432626813,0.921799,0.03762745439999998,0.46206358399999997,0.0662867255715271,0.24634,-0.00854921599999997,0.6742817403536683,0.1434577067077859,0.023088335199999976
bidmc_01,40625,325.0,0.484583384,0.3305472674909169,0.918866,-0.0876683808,0.46359712799999997,0.06415433813415594,0.23753999999999997,0.01161630399999991,0.6821252983070063,0.13838351421073028,0.049642342399999956
bidmc_01,41250,330.0,0.4353110512,0.3091576892123561,0.918866,-0.010876284800000025,0.4642955120000001,0.06849140898490741,0.30987999999999993,-0.010219535999999974,0.7101978646355382,0.14751652707851357,0.010547910399999999
bidmc_01,41875,335.0,0.4671937344,0.31327764961832794,0.918866,0.07464165119999994,0.4566465679999999,0.06614991490471757,0.30987999999999993,-0.005078351999999897,0.6705504718940342,0.14485988657387874,0.03986000159999992
bidmc_01,42500,340.0,0.5214325903999999,0.3387316245911554,0.926686,0.03383606080000001,0.461129088,0.05939529012815962,0.23656,0.014043391999999988,0.6496160409062045,0.12880376204850813,0.0239397264
bidmc_01,43125,345.0,0.44000537544,0.34746050477660895,1.0,-0.19669049071999994,0.46779428,0.060884171274984106,0.24536000000000002,-0.000713008000000126,0.7896715233481639,0.13015131592388898,0.09870174936000004
bidmc_01,43750,350.0,0.42546089224,0.32486083333301463,1.0,0.16760152431999992,0.46649371200000006,0.06488433645049517,0.26686,-0.0018881279999999334,0.7635486027260062,0.13908911458463685,0.08474482615999993
bidmc_01,44375,355.0,0.502618248,0.32577077068820903,0.906158,-0.01328681279999988,0.46424288799999996,0.06705216127209812,0.26588,-0.0026135199999999803,0.6481462299434442,0.14443305125882053,0.00795016639999993
bidmc_01,45000,360.0,0.44911821039999994,0.30990059200269965,0.912023,-0.09371326240000011,0.461689616,0.065011797482092,0.25415,-0.002493024000000066,0.6900185626143497,0.14081247317812498,0.04810314320000009
bidmc_01,45625,365.0,0.4375874879999999,0.30871922378610417,0.912023,0.07065181760000006,0.464568296,0.06605262692169316,0.23459999999999998,0.00825038400000011,0.7055012466098154,0.14218035391149303,0.03945110080000008
bidmc_01,46250,370.0,0.4910881671999999,0.3270799900661464,0.913978,0.03634954080000008,0.46332427200000004,0.06740755630988277,0.23948999999999998,-0.010738432000000075,0.6660297394280346,0.14548646573693214,0.023543986400000078
bidmc_01,46875,375.0,0.4992665008,0.3214839974652929,0.913978,-0.019992873600000072,0.46197375200000007,0.06595846662804174,0.23265000000000002,0.008037391999999977,0.643911323989973,0.14277504634721191,0.014015132800000024
bidmc_01,47500,380.0,0.44928630159999994,0.31208821096341244,0.921799,-0.07996752480000002,0.4641545120000001,0.06674309190771624,0.22776000000000002,-0.003675871999999969,0.6946294939830379,0.1437946769610187,0.041821698399999996
bidmc_01,48125,385.0,0.4362352224,0.30815270859331567,0.921799,0.0538653664,0.46411221599999997,0.06687276349583098,0.22483000000000003,0.00359128000000003,0.7063895494463545,0.14408717784893027,0.028728323200000017
bidmc_01,48750,390.0,0.49274360080000007,0.3212335782216545,0.912023,0.05915139040000006,0.46233495999999996,0.06471292437989802,0.23265000000000008,-0.007145791999999984,0.6519271397395583,0.13996948102392476,0.03314859120000002
bidmc_01,49375,395.0,0.5014349511999999,0.3271194222924442,0.924731,-0.04176868960000002,0.46368239200000005,0.06655449903679192,0.24535,0.009840656000000003,0.6523653150708596,0.14353436026622216,0.02580467280000001
bidmc_01,50000,400.0,0.45354838,0.31860298541741067,0.926686,-0.05400445280000005,0.46471295200000007,0.06919051135644032,0.23948999999999998,-0.007779535999999976,0.7024659264607763,0.14888838834871115,0.03089199440000001
bidmc_01,50625,405.0,0.43824664480000003,0.31476151063180297,0.926686,0.023400982399999992,0.462092496,0.06595553416423813,0.22873999999999994,0.0025386239999999893,0.718227500744353,0.14273201145475142,0.01296980319999999
bidmc_01,51250,410.0,0.4919858464,0.32877902538468423,0.912023,0.08407742080000008,0.461558296,0.06298550445599672,0.23753999999999997,-0.0036070240000000142,0.6682679177105013,0.13646243289182228,0.04384222240000005
bidmc_01,51875,415.0,0.5059596936,0.325996500121458,0.947214,-0.05612972640000008,0.46214558400000005,0.06314804866042137,0.24144999999999994,0.004781599999999997,0.6443119085040679,0.13664073444805852,0.030455663200000038
bidmc_01,52500,420.0,0.47682577600000003,0.3283028299993983,0.947214,-0.002138108799999927,0.465981408,0.0603306530972236,0.23851999999999995,0.0028900479999999784,0.6885159276361575,0.1294698084336772,0.0025140783999999528
bidmc_01,53125,425.0,0.44946625840000004,0.323201852704818,0.926686,-0.05258092640000006,0.464374976,0.05666416864191536,0.21406999999999993,-0.006102912000000016,0.7190776339423303,0.12202217937715917,0.02934191920000004
bidmc_01,53750,430.0,0.4462771624,0.32408799789087905,0.926686,0.0462027344,0.464422784,0.061137860112448685,0.23558,0.006198527999999981,0.7262017844386442,0.13164239692006965,0.02620063119999999
bidmc_01,54375,435.0,0.4978509448000001,0.33191016198365625,0.923754,0.056944830399999924,0.46274248800000006,0.06473528502671363,0.23656,-0.009559119999999977,0.6666844740698826,0.1398945348890866,0.03325197519999995
bidmc_01,55000,440.0,0.4984501416,0.32739461930848884,0.923754,-0.055746436799999854,0.46198627999999997,0.06539033968287365,0.23363,0.008046704000000071,0.6568238930250427,0.1415414287659038,0.03189657039999996
bidmc_01,55625,445.0,0.45774636800000007,0.31970115080679046,0.918866,-0.02566111040000013,0.46391852,0.06664168769988947,0.23363,-0.004182224000000123,0.698422695915513,0.143649242652884,0.014921667200000127
bidmc_01,56250,450.0,0.43691029359999994,0.31343258438957905,0.915934,-0.0160110383999999,0.46283384000000005,0.06418393329279844,0.23459999999999998,0.0020128640000000586,0.7173826563442697,0.1386756737949944,0.009011951199999979
bidmc_01,56875,455.0,0.47098013680000006,0.3133145345820313,0.905181,0.08415072480000002,0.46256647199999995,0.06462713218914495,0.24144000000000004,-0.0025476000000000387,0.6652379683627943,0.13971395764107028,0.04334916240000003
bidmc_01,57500,460.0,0.4927943824,0.32245734933686376,0.915934,-0.04052223360000001,0.45962776799999994,0.06723950399503388,0.24242999999999998,-0.0033298079999999897,0.6543432849683776,0.14629089534063694,0.0219260208
bidmc_01,58125,465.0,0.4306821728,0.3099866351194189,0.915934,-0.08370218560000003,0.46245544,0.06817175184610118,0.24242999999999998,0.008985152000000052,0.7197556224546763,0.14741226621495676,0.04634366880000004
bidmc_01,58750,470.0,0.44146611519999995,0.3083426434174935,0.914956,0.10527007040000003,0.46357999199999994,0.06582246573625099,0.25806999999999997,-0.006736047999999939,0.6984498568546914,0.14198698150300995,0.05600305919999998
bidmc_02,0,0.0,0.44379849832,0.4004011572696405,1.16856,0.1749391345600001,0.47982099199999995,0.15313305905066985,0.57674,-0.012332159999999981,0.9022118294080015,0.3191455614870397,0.09363564728000004
bidmc_02,625,5.0,0.5250435463199999,0.41342906389580564,1.187011,-0.012449038560000014,0.47253495199999995,0.17264070665528944,0.74682,-0.0022399200000000064,0.7874171187825884,0.3653493579157115,0.00734447928000001
bidmc_02,1250,10.0,0.45175005912000005,0.4246775965740607,1.187011,-0.13413793583999994,0.46536454400000005,0.16366939181408374,0.74682,-0.012100895999999917,0.9400699522460937,0.35170070909694107,0.07311941591999993
bidmc_02,1875,15.0,0.419761028,0.3779989144421377,1.1230499,0.07015987359999998,0.45510850399999997,0.13409317630752873,0.54741,-0.008411184000000127,0.9005076429689294,0.2946393672928631,0.03928552880000005
bidmc_02,2500,20.0,0.5035623309599999,0.39118001619419296,1.12551,0.09744273231999995,0.461597744,0.14315822780193413,0.60899,0.021389664000000086,0.7768238712863427,0.3101356527996405,0.05941619816000002
bidmc_02,3125,25.0,0.47650400576,0.43454674213355093,1.1697899999999999,-0.15155938272000002,0.46172764,0.15024170816211588,0.69209,-0.021129871999999994,0.911945807243876,0.3253896231390712,0.08634462736000001
bidmc_02,3750,30.0,0.44241473944,0.4234753483061732,1.1697899999999999,0.08338085007999996,0.45824748,0.14582437277975724,0.69209,0.01416955200000003,0.9571887040958329,0.31822118161691937,0.048775201039999994
bidmc_02,4375,35.0,0.5335655193600001,0.42954047884193075,1.1378101,0.09892070976,0.48148800799999997,0.14467995542531778,0.66276,0.03231150399999999,0.8050364167473514,0.30048444101826266,0.06561610688
bidmc_02,5000,40.0,0.48460808568,0.4397243635549165,1.16241,-0.19683557712,0.4791608319999999,0.14275186117101163,0.6676500000000001,-0.036965856000000075,0.907379528260182,0.29791993359565344,0.11690071656000003
bidmc_02,5625,45.0,0.42309190376000005,0.3924057208454574,1.16241,0.07380321328000006,0.4768602639999999,0.1558593247289693,0.69208,0.032364720000000125,0.9274693982294963,0.32684417145060735,0.05308396664000009
bidmc_02,6250,50.0,0.5015182176,0.40104615501672014,1.1784,0.08304941440000002,0.46056088,0.14934134125347073,0.7057599999999999,-0.06496348800000007,0.799662587080731,0.3242590143445453,0.07400645120000005
bidmc_02,6875,55.0,0.4643072675199999,0.42765834593171603,1.183321,-0.15747131456000008,0.444034504,0.1402912335523285,0.64516,0.031910735999999995,0.9210655416841029,0.3159459824463237,0.09469102528000004
bidmc_02,7500,60.0,0.42844998832000003,0.40874846512593344,1.183321,0.08575675616000006,0.46850048000000005,0.14669163092068205,0.62268,0.017021216000000006,0.9540145227081348,0.3131081483898024,0.05138898608000003
bidmc_02,8125,65.0,0.563676668,0.4416382328726527,1.25835,0.1846966032000001,0.468054752,0.14320317507645736,0.6177900000000001,-0.01791267200000002,0.7834942875059095,0.30595324267365775,0.10130463760000005
bidmc_02,8750,70.0,0.51018312136,0.47014730688715306,1.25835,-0.29168369648000014,0.4682478799999999,0.1552242141123143,0.65494,0.018298927999999992,0.9215247735148624,0.33149938150906916,0.15499131224000007
bidmc_02,9375,75.0,0.40160107895999997,0.4245799098189682,1.25835,0.07451961167999999,0.47028898399999997,0.16680464285243304,0.66569,-0.014216720000000016,1.0572154181035922,0.35468465952367184,0.04436816584
bidmc_02,10000,80.0,0.46548575799999997,0.4122014800594562,1.14642,0.05324974640000013,0.47071844,0.16145155980877485,0.71163,0.015075632000000061,0.8855278329087426,0.34298893584844264,0.034162689200000096
bidmc_02,10625,85.0,0.51607724696,0.4192586716063173,1.14642,0.04793323151999995,0.475557528,0.15401919097894656,0.7106600000000001,-0.005397456000000078,0.8123936129375611,0.3238701062237003,0.026665343760000015
bidmc_02,11250,90.0,0.47151596896000003,0.4154779645344215,1.12797,-0.13705578752000003,0.46972124000000004,0.1484125429647454,0.67644,-0.006275119999999967,0.8811516697921163,0.31595809252026347,0.07166545376
bidmc_02,11875,95.0,0.38284229919999996,0.3746839746738428,1.1169,-0.04029155199999995,0.47834596,0.1470655191215072,0.6275700000000001,0.023524560000000028,0.9786875608291771,0.30744528850252795,0.03190805599999999
bidmc_02,12500,100.0,0.4262757208,0.3807557907981772,1.11075,0.12715839519999989,0.47894118399999996,0.15085537937732993,0.63636,-0.022334112000000017,0.8932127236120402,0.31497617962449087,0.07474625359999995
bidmc_02,13125,105.0,0.5261179216,0.4309919871371917,1.16241,0.07252600639999995,0.45788328,0.1522617751257406,0.6608,-0.019781696000000015,0.8191911931745123,0.33253330978242057,0.046153851199999985
bidmc_02,13750,110.0,0.49846157592,0.4513817002880892,1.16241,-0.12783869775999984,0.447842144,0.13781102952043883,0.6598299999999999,-0.00030057599999999685,0.9055478226323916,0.30772164622093406,0.06406963687999992
bidmc_02,14375,115.0,0.39459836544000004,0.42420157857331414,1.210381,-0.07988772319999998,0.474654144,0.15233363604544883,0.68426,0.053924575999999946,1.0750184002457936,0.320935394825193,0.06690614959999996
bidmc_02,15000,120.0,0.42617463048,0.42736837615529244,1.210381,0.14304025327999997,0.4887210639999999,0.16993168498166522,0.6891499999999999,-0.02579073599999987,1.0027987186267528,0.34770618619270127,0.08441549463999992
bidmc_02,15625,125.0,0.53616793056,0.4419521398689028,1.191931,0.07694634687999985,0.457709616,0.1500740009435763,0.6744899999999999,-0.036232160000000124,0.824277787613145,0.3278796595436107,0.05658925343999999
bidmc_02,16250,130.0,0.48134116488,0.4358622112636918,1.17471,-0.1865998782399999,0.448717192,0.14304153713056617,0.63538,0.01824731200000007,0.9055142953710559,0.3187781099157357,0.10242359511999999
bidmc_02,16875,135.0,0.40495255104,0.3975877729876585,1.17471,0.033822650560000056,0.46429788000000005,0.15554023430632216,0.71261,0.012914064000000058,0.9818108076014528,0.33500023585308275,0.023368357280000057
bidmc_02,17500,140.0,0.5141687392800001,0.41322967082382683,1.13043,0.18460972591999997,0.466052728,0.15819232005833284,0.69111,-0.009404368000000107,0.8036833739038761,0.3394293630847919,0.09700704696000004
bidmc_02,18125,145.0,0.4995491948000001,0.42523037076668607,1.1796309999999999,-0.21384881488000002,0.448403568,0.14295174758186546,0.66081,-0.025893951999999998,0.8512265137579044,0.31880082805460064,0.11987138344
bidmc_02,18750,150.0,0.39505894968000005,0.4032841281724418,1.1796309999999999,0.004868324640000032,0.45933303200000003,0.1309231844299816,0.68133,0.04775288000000005,1.0208175455373378,0.2850282698626206,0.026310602320000043
bidmc_02,19375,155.0,0.4018565536,0.3968918014501574,1.16733,0.00872688319999998,0.473066,0.1469786259682679,0.7810400000000001,-0.020286943999999973,0.9876430040810298,0.3106930434130217,0.014506913599999977
bidmc_02,20000,160.0,0.39469781239999996,0.3985288909889983,1.25835,-0.023044365600000005,0.46012994400000007,0.1478333078607012,0.72043,-0.005585168000000085,1.009703800641581,0.3212852988663618,0.014314766800000045
bidmc_02,20625,165.0,0.46695204096,0.4350921743741943,1.25835,0.16755282272,0.46316734400000004,0.14260389831524825,0.5952999999999999,0.01165996800000002,0.931768585294351,0.3078878342239388,0.08960639536000001
bidmc_02,21250,170.0,0.51715653096,0.43556642156901615,1.1538,-0.06714384272000007,0.469671256,0.15159222570917832,0.66666,0.0013478559999999806,0.8422316131807531,0.3227617211206496,0.034245849360000025
bidmc_02,21875,175.0,0.430975216,0.41249447836383146,1.16856,-0.10521878719999994,0.4849062320000001,0.1583213920134679,0.74095,0.02912209600000004,0.9571165717502877,0.3264983105334834,0.06717044159999999
bidmc_02,22500,180.0,0.40836167192,0.3937172320908862,1.16856,0.05999169904000001,0.480568504,0.16257400577386896,0.74095,-0.037797551999999957,0.9641361935451758,0.338294470249758,0.048894625519999985
bidmc_02,23125,185.0,0.50787762272,0.41581597570503975,1.14888,0.13904020256,0.45628406400000004,0.15560151993333451,0.6305000000000001,-0.010771328000000024,0.8187310059992117,0.3410182191134236,0.07490576528000001
bidmc_02,23750,190.0,0.5228854272000001,0.4227151984960512,1.16733,-0.1090245936,0.43760403200000003,0.14378785249520548,0.59531,-0.026588736000000057,0.8084264125187665,0.32857906555152566,0.06780666480000003
bidmc_02,24375,195.0,0.39664940192000003,0.38529353888972395,1.16733,-0.14344745696,0.44511900800000004,0.13986542055496037,0.6002000000000001,0.041618688000000126,0.9713680788540671,0.31421957683591784,0.09253307248000006
bidmc_02,25000,200.0,0.44746785751999996,0.3973451954048422,1.16487,0.24508436816000012,0.474021536,0.1485671331282956,0.63636,0.01618636799999995,0.8879840210714163,0.31341786907847685,0.13063536808000004
bidmc_02,25625,205.0,0.57062065016,0.42711591612379396,1.1538,0.0012212171199998956,0.46461784,0.15257227826828307,0.63929,-0.03499376000000004,0.7485098330987483,0.32838160042817693,0.018107488559999968
bidmc_02,26250,210.0,0.4837710844,0.45020081349295876,1.17225,-0.17492034864,0.47150103199999993,0.15587409608005742,0.6705800000000001,0.04876014399999995,0.9306051920116927,0.33059050757188985,0.11184024631999998
bidmc_02,26875,215.0,0.39274847512,0.41256852896865465,1.25835,-0.007124869920000054,0.48012731999999997,0.15007770364960146,0.6705800000000001,-0.03150756799999993,1.0504623305800707,0.31257831999912333,0.019316218959999992
bidmc_02,27500,220.0,0.48552566216000004,0.428285363707827,1.25835,0.19267924400000008,0.45461803200000006,0.13903119452945434,0.6334299999999999,-0.019511007999999996,0.8821047268598614,0.3058191249007242,0.10609512600000004
bidmc_02,28125,225.0,0.52591609096,0.43295148723208754,1.182091,-0.11189838640000005,0.46090951999999996,0.14124849509233575,0.6305000000000001,0.03209398399999991,0.8232314459333986,0.30645535079636665,0.07199618519999998
bidmc_02,28750,230.0,0.42845011608000005,0.4225778518405596,1.183321,-0.08303356335999995,0.48559628000000005,0.14732231118470007,0.7194499999999999,0.017279536000000095,0.9862918685025814,0.3033837240288909,0.05015654968000002
bidmc_02,29375,235.0,0.4278547218400001,0.4135031103164457,1.183321,0.08184277487999991,0.487768752,0.16806748324992107,0.75464,-0.012934592000000078,0.9664545528061872,0.34456315210362015,0.047388683439999996
bidmc_02,30000,240.0,0.5198239516800001,0.4140042602663343,1.13289,0.10209568479999992,0.46059209599999995,0.1562017377278716,0.75464,-0.04141872000000002,0.7964301423552902,0.3391317392388175,0.07175720239999997
bidmc_02,30625,245.0,0.49277598599999994,0.41847328605087514,1.1415,-0.15619161616,0.45453995999999997,0.13881830662358047,0.5953,0.02931444800000005,0.8492143463267889,0.3054032943996521,0.09275303208000002
bidmc_02,31250,250.0,0.4128471664799999,0.41511145842405195,1.17102,-0.0036660228799998418,0.465081496,0.14769543383517983,0.62561,-0.008231376000000068,1.005482141203022,0.3175682488707978,0.005948699439999955
bidmc_02,31875,255.0,0.50513264264,0.4482649498597996,1.17102,0.18823697519999993,0.46385531199999996,0.15171882148376536,0.5992200000000001,0.005779008000000085,0.887418520605784,0.3270815068347402,0.09700799160000001
bidmc_02,32500,260.0,0.5463384369600001,0.43533307884817785,1.16856,-0.10582538655999996,0.46867791999999997,0.15242313126502027,0.58846,0.003866207999999982,0.796817965897729,0.3252186619893643,0.05484579727999997
bidmc_02,33125,265.0,0.44844045496,0.4149618028627757,1.1697899999999999,-0.08997057744000003,0.47323554399999995,0.13418489747413478,0.58162,0.005249039999999983,0.9253422008003015,0.28354720102540265,0.04760980872000001
bidmc_02,33750,270.0,0.3984869224,0.4075654395155836,1.182091,-0.009936487679999995,0.48249552,0.13962302877193863,0.58651,0.013270912000000024,1.022779905250106,0.28937624000259865,0.011603699840000009
bidmc_02,34375,275.0,0.40993086487999997,0.3953299921499041,1.182091,0.03282437263999999,0.473479568,0.1549006100872859,0.61682,-0.031302815999999956,0.964379756781361,0.32715304609351126,0.03206359431999997
bidmc_02,35000,280.0,0.47521449760000006,0.4022750754373307,1.16241,0.09774289279999998,0.463414224,0.15852950955099124,0.7038099999999999,0.011172127999999948,0.8465108513273594,0.34208955886825,0.054457510399999964
bidmc_02,35625,285.0,0.51121492,0.4126750692875955,1.1230499,-0.025742047999999906,0.46165554400000003,0.1566650340257968,0.7038099999999999,-0.014689487999999973,0.8072422104687105,0.33935408489692453,0.02021576799999994
bidmc_02,36250,290.0,0.42813377280000003,0.39710324277958914,1.1230499,-0.14042024640000006,0.451688736,0.14691968300919486,0.63441,-0.00524412800000007,0.9275192486294332,0.3252668176838866,0.07283218720000006
bidmc_02,36875,295.0,0.42043091752,0.39284929582720535,1.15503,0.12501453584000005,0.46431674399999995,0.14230102131368721,0.6578700000000001,0.030500144000000007,0.9343945582069598,0.3064733647432764,0.07775733992000003
bidmc_02,37500,300.0,0.55464363664,0.4336445532514081,1.15749,0.14341090239999993,0.464491944,0.12880207851110503,0.62659,-0.030149743999999923,0.7818421464929286,0.2772960928145015,0.08678032319999993
bidmc_02,38125,305.0,0.5059486393599999,0.4430698557552568,1.15749,-0.24080089696,0.47294239200000004,0.14523346012857483,0.71652,0.04705063999999998,0.8757192836736029,0.307084235841432,0.14392576848
bidmc_02,38750,310.0,0.40768625392,0.401630553600675,1.17348,0.04427612608000003,0.476047736,0.16599914213776618,0.7302,-0.04083995199999996,0.9851437584543336,0.3487019911712699,0.042558039039999995
bidmc_02,39375,315.0,0.5509731689599999,0.4265740426129187,1.25835,0.24229770399999995,0.45888407999999997,0.14608303644706186,0.7214,0.006512640000000014,0.774217861098834,0.31834339971799014,0.12440517199999998
bidmc_02,40000,320.0,0.4615537801599999,0.42560477911422856,1.25835,-0.42113648159999995,0.4683079680000001,0.1341412059013597,0.51418,0.012335135999999969,0.9221110849869021,0.2864374057883933,0.21673580879999996
bidmc_02,40625,325.0,0.34975109536,0.36072317453613684,1.182091,0.197531112,0.47369689600000003,0.156334466088976,0.7693099999999999,-0.0015572799999999942,1.0313681585376762,0.3300298933330622,0.099544196
bidmc_02,41250,330.0,0.48046194248,0.40159866830760227,1.182091,0.06389058224000005,0.470231936,0.1573295660954161,0.7693099999999999,-0.00537264000000004,0.8358577380279842,0.33457793797628865,0.034631611120000044
bidmc_02,41875,335.0,0.45543280152,0.41764253611782926,1.17225,-0.11394886416000005,0.47097089599999997,0.15051855038099848,0.7302,0.0068505600000000055,0.917021386475832,0.319591363432434,0.06039971208000003
bidmc_02,42500,340.0,0.39424869024,0.3987115227174,1.17225,-0.008419358400000021,0.473845504,0.15234788324392953,0.69794,-0.0011013440000000596,1.0113172757971831,0.32151315237714523,0.00476035120000004
bidmc_02,43125,345.0,0.41767803752,0.3795339871538431,1.15872,0.055278052960000046,0.460791368,0.14343863378144875,0.6236499999999999,-0.025006927999999984,0.9086737735447633,0.3112869130277105,0.040142490480000015
bidmc_02,43750,350.0,0.5166125458399999,0.40908376286428033,1.1193599,0.14259096368000002,0.45452996,0.14566468867614554,0.63734,0.012484112000000103,0.7918564392250322,0.32047253431569445,0.07753753784000006
bidmc_02,44375,355.0,0.48452148488,0.4338880376560958,1.214071,-0.20677308560000002,0.477015136,0.14544468476675765,0.71456,0.032486239999999944,0.8954961868561278,0.30490516733118994,0.11962966279999998
bidmc_02,45000,360.0,0.27157672696,0.32868157284973215,1.214071,-0.21911643024000005,0.486942024,0.12904779053786014,0.60019,-0.01263246400000001,1.210267044094315,0.2650162014393293,0.11587444712000003
bidmc_02,45625,365.0,0.34486112543999997,0.3748549708719092,1.14888,0.3656852271999999,0.47582024,0.12653054648717202,0.62952,-0.009611103999999981,1.0869705404548042,0.26592034119194013,0.18764816559999994
bidmc_02,46250,370.0,0.4780836384,0.43432238572336174,1.16733,-0.09924020127999983,0.4756269920000001,0.14497438915916128,0.68329,0.009224607999999912,0.9084633783191678,0.3048062595087155,0.05423240463999987
bidmc_02,46875,375.0,0.4036673336,0.44594858542990823,1.194391,-0.04959240832000006,0.48293176000000004,0.16213989972348694,0.7087,0.005384928000000122,1.1047400757271297,0.33574011364125916,0.02748866816000009
bidmc_02,47500,380.0,0.4581479792,0.4592326486110582,1.25835,0.15855369951999998,0.48877576,0.15643555116028582,0.67155,0.006303071999999965,1.0023653210205783,0.3200552153099215,0.08242838575999997
bidmc_02,48125,385.0,0.44557643048,0.42055805658373413,1.25835,-0.18369679696000002,0.46695995199999996,0.1532076029648584,0.7106600000000001,-0.04993468800000006,0.9438495485076216,0.3280951058298734,0.11681574248000004
bidmc_02,48750,390.0,0.450778688,0.3922005443122386,1.25835,0.19410131199999997,0.454575112,0.14886499752362023,0.6647200000000001,0.02516500799999999,0.8700492829486999,0.3274809071437089,0.10963315999999998
bidmc_02,49375,395.0,0.5386600288,0.4108506260978313,1.1169,-0.018338630399999944,0.47032487999999995,0.14057560100225644,0.6901200000000001,0.0063345280000000614,0.7627257294129894,0.2988897846792026,0.012336579200000003
bidmc_02,50000,400.0,0.4786990184,0.41118016526041584,1.1169,-0.10158339039999992,0.47117032799999997,0.14378839934227106,0.6901200000000001,-0.004643632000000064,0.8589516387209227,0.3051722182515127,0.05311351119999999
bidmc_02,50625,405.0,0.40346299568000005,0.378261851861348,1.12551,-0.04888865504000012,0.46698724,0.1509025990598651,0.57282,-0.0037225439999999943,0.9375355816417368,0.32314004108511407,0.026305599520000056
bidmc_02,51250,410.0,0.38905269808000004,0.3771372393037723,1.12551,0.02006805984000004,0.465788352,0.15134986523153596,0.6471199999999999,0.0013247680000000872,0.9693706579964769,0.3249319989425949,0.010696413920000064
bidmc_02,51875,415.0,0.3979413304,0.3776480210722789,1.11075,-0.002290795199999973,0.4660738240000001,0.15689029452383926,0.69697,-0.0007538240000000695,0.949001883495727,0.33662040180020375,0.0015223096000000214
bidmc_02,52500,420.0,0.4676347648000001,0.3831054417606274,1.11075,0.14167766400000004,0.463858448,0.15499719847581533,0.69697,-0.0036769280000000237,0.8192389688681642,0.33414690407645925,0.07267729600000003
bidmc_02,53125,425.0,0.4957804336000001,0.39597963068576847,1.11321,-0.0853863264000001,0.45898255200000004,0.1428251993210137,0.67057,-0.006074864000000013,0.7986979823154241,0.31117716244658306,0.04573059520000006
bidmc_02,53750,430.0,0.42516958464,0.3983006391457522,1.1538,-0.055835371519999955,0.46791708,0.1432742031201486,0.62658,0.02394392000000012,0.9368019649877729,0.30619505687864984,0.039889645760000036
bidmc_02,54375,435.0,0.51342553984,0.41532237870292593,1.1538,0.2323472819200001,0.48094400000000004,0.15459148634203632,0.6656900000000001,0.002109919999999932,0.8089226919051625,0.3214327757686145,0.11722860096000001
bidmc_02,55000,440.0,0.42198745056,0.39144548601965257,1.198081,-0.41522346048000014,0.478491528,0.14701224533971724,0.6656900000000001,-0.0070148640000000095,0.927621325892177,0.30724042014657593,0.21111916224000007
bidmc_02,55625,445.0,0.29943631744,0.3511964110727177,1.210381,0.17012119424000002,0.48344943199999996,0.14470102454397957,0.60606,0.016930672000000035,1.1728545195208977,0.29930891559112227,0.09352593312000003
bidmc_02,56250,450.0,0.43586866808,0.4237668811788338,1.210381,0.10274350703999996,0.477239488,0.16455184813953883,0.69111,-0.029350560000000026,0.9722330141611395,0.34479859164744386,0.06604703351999999
bidmc_02,56875,455.0,0.507795356,0.4372348059996155,1.14396,0.04110986880000006,0.4645584239999999,0.1534095288174637,0.69111,0.003988432000000097,0.8610436070155956,0.33022584602107596,0.02254915040000008
bidmc_02,57500,460.0,0.49520183079999996,0.43035227809595084,1.1292,-0.06629691920000008,0.486366352,0.1466890713048934,0.63147,0.039627423999999856,0.8690424434785983,0.3016013938881601,0.05296217159999997
bidmc_02,58125,465.0,0.40312004983999994,0.3801693376420091,1.13289,-0.11786664271999991,0.48864668,0.15425887871217528,0.77322,-0.035066767999999915,0.9430649622313189,0.31568527801498064,0.07646670535999991
bidmc_02,58750,470.0,0.3896843012,0.37382507137448956,1.1390400999999999,0.09099514543999998,0.462836376,0.1582953977420273,0.77322,-0.016553839999999986,0.9592999023143282,0.342010835663426,0.05377449271999998
bidmc_03,0,0.0,0.37494198399999995,0.17837708203349373,0.55621,0.08321081599999997,0.41255608000000005,0.1533749607006098,0.70968,0.013447551999999918,0.47574455222635603,0.37176664305605855,0.04832918399999994
bidmc_03,625,5.0,0.374533664,0.181296190737299,0.55914,-0.08402745599999994,0.4406882239999999,0.11072190094198087,0.42327000000000004,0.04281673600000002,0.48405717324284575,0.25124712589291925,0.06342209599999998
bidmc_03,1250,10.0,0.364061784,0.1775588292827404,0.61388,0.06308369599999997,0.45427096,0.1305297662434067,0.4917,-0.015651263999999998,0.48771485877210785,0.2873383737869419,0.03936747999999998
bidmc_03,1875,15.0,0.42716268,0.25422757625139253,0.86608,0.06311809600000001,0.437656264,0.1520615349228144,0.52102,-0.017578128000000026,0.5951526034502571,0.34744433014326576,0.04034811200000002
bidmc_03,2500,20.0,0.43714496799999997,0.27236804291788524,0.8944300000000001,-0.043153520000000056,0.423278888,0.15317399257982228,0.52297,-0.011176623999999968,0.6230597165610487,0.36187401509570966,0.027165072000000012
bidmc_03,3125,25.0,0.43483874400000005,0.22811588709307923,0.6852400000000001,0.03854107200000012,0.423267104,0.15527722174309141,0.5356799999999999,0.011153056000000106,0.524597602313645,0.366853113371121,0.024847064000000113
bidmc_03,3750,30.0,0.39633407200000004,0.20670070039005387,0.6608,-0.11555041600000004,0.43531332,0.1580196427949943,0.5356799999999999,0.012939375999999891,0.5215301773496691,0.36300125113043447,0.06424489599999997
bidmc_03,4375,35.0,0.378802088,0.17878146626996952,0.5444800000000001,0.08048644799999999,0.43554565600000006,0.154444547186392,0.522,-0.012474703999999948,0.4719641204983248,0.35459931802665934,0.04648057599999997
bidmc_03,5000,40.0,0.390413424,0.18908555911680888,0.58065,-0.057263776000000044,0.425328664,0.15123547774003,0.5239499999999999,-0.007959280000000013,0.48432011599245856,0.35557237253978596,0.03261152800000003
bidmc_03,5625,45.0,0.408525648,0.21021496279099663,0.6823,0.09348822400000001,0.42022287999999997,0.14612033856690038,0.5347,-0.0022522879999999357,0.5145685448431179,0.34772021658288527,0.04787025599999997
bidmc_03,6250,50.0,0.39751488799999996,0.20149377443729485,0.6823,-0.11550974399999997,0.42326802399999996,0.14685021043721871,0.5180899999999999,0.00834257599999988,0.5068823172101612,0.3469429656095475,0.061926159999999925
bidmc_03,6875,55.0,0.380152656,0.1733268528273264,0.5180899999999999,0.08078528000000007,0.42047859200000004,0.14749342961887332,0.5826,-0.013921439999999952,0.4559389344063718,0.3507742882771664,0.04735336000000001
bidmc_03,7500,60.0,0.371138352,0.16464282479647904,0.50733,-0.09881388800000002,0.42049490399999995,0.14893601413933025,0.59629,0.013954063999999988,0.44361457201789545,0.3541913553082559,0.056383976
bidmc_03,8125,65.0,0.377873832,0.16284437400547733,0.46236,0.11228484799999999,0.4262185359999999,0.1491595141140407,0.5180899999999999,-0.0025068000000000312,0.43094792300292,0.34995935548585627,0.05739582400000001
bidmc_03,8750,70.0,0.38199278400000003,0.17662159374326045,0.55914,-0.10404694400000003,0.43471296000000004,0.1428789082971955,0.50538,0.019495647999999977,0.46236771680886946,0.3286733839814932,0.061771296
bidmc_03,9375,75.0,0.392452107296,0.2146716491247286,0.75953,0.12496559059199996,0.4347856,0.14724593879248418,0.52492,-0.019350368000000062,0.5469994889422974,0.3386625503005019,0.07215797929600001
bidmc_03,10000,80.0,0.401944939296,0.2026577235337863,0.75953,-0.105979926592,0.429506952,0.1540539713510486,0.52492,0.008793072000000124,0.5041914937335531,0.35867548117257814,0.057386499296000065
bidmc_03,10625,85.0,0.380018824,0.17142418750683064,0.5278499999999999,0.06212769600000001,0.434486064,0.1561131618257343,0.53862,0.0011651520000000581,0.45109275011619043,0.3593045104462173,0.031646424000000034
bidmc_03,11250,90.0,0.38602161599999996,0.17311181235752962,0.5278499999999999,-0.050122111999999996,0.43162941600000004,0.154692309343868,0.53862,-0.006878448000000037,0.4484499228343907,0.35839065925295677,0.028500280000000017
bidmc_03,11875,95.0,0.3433214248,0.1824652874442817,1.0,-0.035278270400000034,0.43449943999999996,0.15640497922459629,0.54545,0.012618495999999979,0.5314691795928436,0.3599650652243213,0.023948383200000006
bidmc_03,12500,100.0,0.5049666408,0.2908549419687934,1.0,0.3585687024000001,0.43342491200000005,0.15527634673404786,0.54545,-0.014767552000000017,0.5759872880329591,0.35825349254625977,0.18666812720000006
bidmc_03,13125,105.0,0.560825736,0.25255657822986577,0.82893,-0.24685051200000008,0.4295295599999999,0.1545065293902054,0.50831,0.00697684799999998,0.45032906246799503,0.35971021337854386,0.12691368000000003
bidmc_03,13750,110.0,0.39003801600000004,0.17212126064302383,0.5747800000000001,-0.09472492799999999,0.43184663199999995,0.15525475796463237,0.50635,-0.0023427039999999733,0.4412924184051983,0.3595128153085077,0.04853381599999998
bidmc_03,14375,115.0,0.37801931200000005,0.1523289317449796,0.47312,0.07068751999999995,0.42545136,0.15155505767631247,0.66666,-0.010447839999999986,0.40296493841574205,0.3562209824768923,0.04056767999999997
bidmc_03,15000,120.0,0.366084928,0.15557807893824507,0.47312,-0.09455628799999999,0.463065352,0.153507379593543,0.66666,0.08567582400000007,0.42497694404206954,0.3315019088096969,0.09011605600000003
bidmc_03,15625,125.0,0.36823397599999996,0.16976949438185715,0.51613,0.09885438400000002,0.467343872,0.14851415457783013,0.62268,-0.077118784,0.4610357664174116,0.3177827841402529,0.087986584
bidmc_03,16250,130.0,0.388876728,0.1770431342450026,0.53079,-0.05756887999999999,0.43389710400000003,0.1433157961022203,0.5141800000000001,0.010225247999999909,0.4552668396710099,0.3302982769019436,0.03389706399999995
bidmc_03,16875,135.0,0.389498424,0.17287241272521253,0.53079,0.058812272000000054,0.436309616,0.1427192046833661,0.49951000000000007,-0.0054002239999999535,0.44383226796559405,0.32710458890912275,0.032106248000000004
bidmc_03,17500,140.0,0.39328508,0.16642432832934492,0.4936499999999999,-0.051238960000000056,0.43206032800000005,0.14923665416181245,0.51808,-0.003098351999999971,0.42316353614484636,0.3454061830819824,0.027168656000000013
bidmc_03,18125,145.0,0.3915520296,0.2267804508551333,0.907135,0.04777285920000007,0.43382602400000003,0.15382206102153043,0.51808,0.006629743999999993,0.5791819593039699,0.3545700302467336,0.027201301600000033
bidmc_03,18750,150.0,0.5009054984,0.3058151313147033,0.982405,0.17093407840000002,0.428053856,0.15166772092179426,0.5190600000000001,-0.018174080000000148,0.6105233856848348,0.35431842156649723,0.09455407920000009
bidmc_03,19375,155.0,0.48530602080000007,0.30163187723958285,0.908113,-0.20213303360000007,0.421854824,0.1502528522500955,0.5190600000000001,0.005776016000000106,0.621527948930886,0.35617109851752454,0.10395452480000009
bidmc_03,20000,160.0,0.43442130400000006,0.23190620857368088,0.78299,0.1003636,0.42698328,0.15292611375315074,0.5180899999999999,0.004480896000000012,0.5338266623015766,0.3581539670574072,0.052422248000000005
bidmc_03,20625,165.0,0.42168769599999995,0.20261634532004466,0.5992200000000001,-0.125830816,0.42815011199999997,0.1540315800985871,0.5307999999999999,-0.002147231999999999,0.48048796954245293,0.35975985062626004,0.063989024
bidmc_03,21250,170.0,0.41546590400000005,0.2077149689959363,0.6002000000000001,0.113387232,0.4172441360000001,0.151009055909947,0.5444800000000001,-0.019664720000000024,0.49995551269214045,0.36191927210374236,0.06652597600000001
bidmc_03,21875,175.0,0.409671176,0.20819845807992196,0.59043,-0.124976688,0.4192733679999999,0.15137631848745886,0.5444800000000001,0.023723183999999953,0.5082074650828178,0.3610435791950413,0.07434993599999998
bidmc_03,22500,180.0,0.39383229599999997,0.1864246201305192,0.5679399999999999,0.09329892800000006,0.419541544,0.14868236568018436,0.6119300000000001,-0.023186831999999935,0.4733592157492931,0.3543916291840581,0.05824288
bidmc_03,23125,185.0,0.379638808,0.18068676214692414,0.54545,-0.12168590400000007,0.40960683200000003,0.1443783443519276,0.60313,0.0033174080000000217,0.4759426128118897,0.35247945247279255,0.06250165600000004
bidmc_03,23750,190.0,0.36867107200000004,0.181593611788881,0.5356799999999999,0.099750432,0.4206099200000001,0.13904913740801703,0.55914,0.018688768000000022,0.49256134538143426,0.33058851017947183,0.05921960000000001
bidmc_03,24375,195.0,0.40613491199999996,0.18831748490852424,0.53861,-0.024822752000000003,0.43325519999999995,0.13154124930895253,0.51613,0.00660179199999994,0.46368094853065905,0.30361077189190266,0.01571227199999997
bidmc_03,25000,200.0,0.39538073599999995,0.18699875881453948,0.52786,0.0033143999999999396,0.43619472800000003,0.13568046635166767,0.48386999999999997,-0.0007227360000001126,0.47295750356698196,0.3110540925601813,0.002018568000000026
bidmc_03,25625,205.0,0.38936004799999996,0.18074778351547688,0.5259,-0.015355775999999932,0.43568950399999995,0.1406427351255442,0.4956,-0.0002877119999998845,0.46421639874843595,0.32280422417823507,0.007821743999999908
bidmc_03,26250,210.0,0.38808531199999996,0.17722003193573424,0.49853000000000003,0.012806304000000046,0.42925048799999993,0.14235568314444583,0.48582,-0.012590319999999988,0.45665107594862625,0.33163701728261885,0.012698312000000017
bidmc_03,26875,215.0,0.393639232,0.17613282092707813,0.5043899999999999,-0.0016984640000000106,0.433623528,0.1460207726196284,0.5004899999999999,0.021336399999999922,0.44744618717498913,0.3367447254266678,0.011517431999999966
bidmc_03,27500,220.0,0.40290069599999995,0.17763067753942613,0.52199,0.02022139199999995,0.43111632,0.1497857324929768,0.5210199999999999,-0.026350815999999888,0.44087845571994355,0.34743612827472764,0.02328610399999992
bidmc_03,28125,225.0,0.410766256,0.2223442889057924,0.76638,-0.004490271999999962,0.423214056,0.15144909781530183,0.53666,0.010546287999999904,0.5412901969620295,0.3578537570159173,0.007518279999999933
bidmc_03,28750,230.0,0.406002096,0.22085801322317192,0.76638,-0.005038048000000017,0.429230048,0.15714390454102156,0.5435,0.0014856960000000918,0.5439811060533685,0.36610563302266425,0.0032618720000000545
bidmc_03,29375,235.0,0.40054666399999994,0.18206754952509,0.5258999999999999,-0.0058728160000000584,0.43353336,0.15697370052614038,0.5435,0.007120927999999915,0.45454652688996844,0.3620790299669452,0.006496871999999987
bidmc_03,30000,240.0,0.4159445519999999,0.19799360603494068,0.61877,0.036668592000000055,0.4294222,0.15358118211825303,0.53763,-0.015343247999999976,0.4760084705388092,0.35764528352975117,0.026005920000000016
bidmc_03,30625,245.0,0.408069016,0.19368004397415792,0.61877,-0.05241966399999998,0.423156056,0.15287899811983616,0.53763,0.0028109599999999735,0.47462454083898664,0.3612819305554394,0.027615311999999975
bidmc_03,31250,250.0,0.365690968,0.1681688568384259,0.49950999999999995,-0.032336432000000026,0.4323417600000001,0.1547791893818494,0.51222,0.015560448000000004,0.45986478116584145,0.3580011132413768,0.023948440000000015
bidmc_03,31875,255.0,0.387433968,0.16557905794470199,0.49071000000000004,0.075822432,0.43228152799999997,0.15293860062804684,0.50929,-0.01568091199999999,0.42737251828209266,0.3537931577656705,0.04575167199999999
bidmc_03,32500,260.0,0.39157237600000006,0.17267958890996532,0.51515,-0.06754561599999998,0.42212696800000005,0.14857487319195994,0.50244,-0.004628207999999967,0.44098909551492416,0.3519664283224179,0.03608691199999997
bidmc_03,33125,265.0,0.394939728,0.17855775974649216,0.52786,0.07428032000000001,0.42596823999999994,0.15240287965134516,0.50929,0.012310752000000036,0.45211280348501354,0.3577790726188238,0.04329553600000002
bidmc_03,33750,270.0,0.39994552000000005,0.19482091670559812,0.6129,-0.06426873600000005,0.4314103999999999,0.15164765186972068,0.50636,-0.001426432000000033,0.4871174193629641,0.3515151705998514,0.03284758400000004
bidmc_03,34375,275.0,0.398161872,0.1908407722009519,0.5962799999999999,0.06070144000000005,0.42373185599999996,0.15088811943978644,0.52591,-0.013930655999999986,0.4793032842121752,0.35609256469785405,0.03731604800000002
bidmc_03,35000,280.0,0.403195776,0.1728601348047543,0.50244,-0.05063363200000004,0.42271756800000004,0.15387032518846958,0.52591,0.011902079999999926,0.4287240005231448,0.36400181311285473,0.03126785599999998
bidmc_03,35625,285.0,0.39968598399999994,0.18140215285346462,0.53568,0.043614048000000016,0.429814224,0.15561643359619132,0.5327500000000001,0.002291232000000032,0.45386054616545796,0.3620542617080295,0.022952640000000024
bidmc_03,36250,290.0,0.380517792,0.18730148320588585,0.55132,-0.08195043200000002,0.427697336,0.152706606416956,0.5327500000000001,-0.006525007999999999,0.49222663149284324,0.35704278825381264,0.04423772000000001
bidmc_03,36875,295.0,0.380992456,0.17590829054381737,0.52395,0.08289975999999999,0.422841792,0.15156916174627585,0.5747800000000001,-0.0031860800000000356,0.46170948023794245,0.3584527503221005,0.04304292000000001
bidmc_03,37500,300.0,0.384920568,0.168012614486167,0.47801,-0.07504353599999997,0.41850397599999994,0.14712034198475554,0.57869,-0.005489552000000009,0.43648532182578814,0.35153785599136,0.04026654399999999
bidmc_03,38125,305.0,0.39765876799999994,0.1583414544717907,0.4555199999999999,0.10051993599999998,0.41544473600000004,0.1420758728397271,0.57673,-0.0006289279999999731,0.3981832390743404,0.3419841883747896,0.050574431999999975
bidmc_03,38750,310.0,0.391306344,0.17831584632307265,0.60704,-0.11322478399999997,0.42950311199999996,0.14461135925118557,0.49365000000000003,0.028745679999999996,0.4556925625272003,0.3366937712838139,0.07098523199999998
bidmc_03,39375,315.0,0.394217792,0.19925424396485195,0.60704,0.11904767999999993,0.43585166399999997,0.14028803077879134,0.49168999999999996,-0.01604857599999998,0.5054407552566696,0.32187030702373165,0.06754812799999996
bidmc_03,40000,320.0,0.39525807999999996,0.186034126606044,0.53959,-0.11696710399999993,0.426857528,0.14404315768785833,0.5053799999999999,-0.0019396959999999908,0.47066376465290566,0.337449408268255,0.05945339999999996
bidmc_03,40625,325.0,0.38673885599999996,0.17959389681270146,0.51515,0.09992865599999995,0.430187968,0.1534679447750278,0.52102,0.008600576000000026,0.464379075563139,0.35674542164230444,0.05426461599999999
bidmc_03,41250,330.0,0.390053784,0.17387570647977638,0.52591,-0.09329879999999996,0.4291135040000001,0.15314166106099927,0.52102,-0.01074950400000002,0.4457725263530581,0.356878314840179,0.05202415199999999
bidmc_03,41875,335.0,0.388139552,0.1687324732671198,0.49951,0.08947033599999998,0.42314367999999997,0.15411235584072291,0.51808,-0.0011901439999999486,0.43472003220915656,0.36420723956809037,0.045330239999999966
bidmc_03,42500,340.0,0.3810848639999999,0.16586800840723176,0.50048,-0.10357971199999999,0.42801173600000003,0.15430225453215615,0.5210199999999999,0.010926255999999912,0.43525101316072906,0.360508558633536,0.05725298399999995
bidmc_03,43125,345.0,0.383417424,0.16680750864132055,0.50146,0.10824483200000001,0.42315377600000004,0.15097354027292936,0.52689,-0.0206421759999999,0.4350534512689994,0.35678089634259347,0.06444350399999996
bidmc_03,43750,350.0,0.408936144,0.1992616592154428,0.67155,-0.057207392000000024,0.4262998240000001,0.15316291409805777,0.52786,0.02693427199999998,0.4872672050926311,0.35928364543357705,0.042070832
bidmc_03,44375,355.0,0.375775624,0.2077301144103344,0.6823,-0.009113647999999974,0.43027260000000006,0.15213679874652286,0.52004,-0.018988720000000014,0.5528021200444188,0.35358153218445854,0.014051183999999994
bidmc_03,45000,360.0,0.395876544,0.20145118400857331,0.6305000000000001,0.04931548800000002,0.422399288,0.15041837460700422,0.5190699999999999,0.0032420959999999166,0.5088724709491815,0.35610386375258396,0.026278791999999968
bidmc_03,45625,365.0,0.408247296,0.20704387358173237,0.60997,-0.02457398400000005,0.42531605600000005,0.15432690272134947,0.5288299999999999,0.002591440000000056,0.5071518377672112,0.36285143175953294,0.013582712000000052
bidmc_03,46250,370.0,0.39619171999999997,0.1915063723660432,0.61095,0.0004628319999999686,0.42407968,0.15308934932220988,0.5288299999999999,-0.005064191999999967,0.4833667119528174,0.3609910956618205,0.002763511999999968
bidmc_03,46875,375.0,0.381612416,0.16779407227933574,0.51711,-0.029621439999999943,0.423247632,0.15345176215030107,0.5132,0.003400096000000019,0.4396964709420377,0.36255701861382766,0.01651076799999998
bidmc_03,47500,380.0,0.363840344,0.1616232178606826,0.5102599999999999,-0.005922704000000056,0.426560952,0.15480569509412015,0.52102,0.003226543999999887,0.4442134477732212,0.36291491627016975,0.004574623999999972
bidmc_03,48125,385.0,0.403420544,0.18550019784190006,0.5923700000000001,0.08508310400000008,0.422670456,0.1501152172854973,0.52102,-0.011007535999999984,0.4598172819493747,0.3551581616277804,0.04804532000000003
bidmc_03,48750,390.0,0.41920394399999994,0.20052475134737074,0.64711,-0.05351630400000007,0.4289627039999999,0.15261270545078606,0.51417,0.02359203200000004,0.47834538742312827,0.35577067250143407,0.038554168000000055
bidmc_03,49375,395.0,0.40659331200000004,0.19144002975780863,0.6647099999999999,0.028295039999999994,0.42937325600000004,0.1543559882822771,0.5210199999999999,-0.022770928000000024,0.4708379436400198,0.3594905519493397,0.02553298400000001
bidmc_03,50000,400.0,0.36686792,0.18056155261359935,0.52297,-0.10774582399999993,0.425908792,0.15458707100990282,0.5180899999999999,0.01584199999999991,0.49216911755184756,0.36295730671978266,0.06179391199999992
bidmc_03,50625,405.0,0.384004056,0.22085876158474868,0.87097,0.14201809599999998,0.428393304,0.15467682193904678,0.53959,-0.010872975999999923,0.575145452211829,0.3610618079997786,0.07644553599999995
bidmc_03,51250,410.0,0.45737318400000004,0.24803622793056287,0.8416399999999999,0.004720159999999973,0.42253531999999994,0.1511383125106854,0.5425200000000001,-0.0008429919999999314,0.5423048274420379,0.35769306768867926,0.0027815759999999523
bidmc_03,51875,415.0,0.39151434399999996,0.2232265077573218,0.82991,-0.13643783999999998,0.42896179200000006,0.15397254838284885,0.53665,0.013695935999999964,0.5701603045149665,0.35894150088161686,0.07506688799999997
bidmc_03,52500,420.0,0.373543688,0.1797952501559445,0.5259,0.10049652800000003,0.4199584,0.1555838739232315,0.56402,-0.03170271999999996,0.48132192996395795,0.3704736075040385,0.066099624
bidmc_03,53125,425.0,0.384273664,0.17895699722786784,0.5317700000000001,-0.07903657600000003,0.400961744,0.14369414605918526,0.56989,-0.006290592000000095,0.46570074478776424,0.3583728119617649,0.04266358400000006
bidmc_03,53750,430.0,0.34554676800000006,0.15495214596808324,0.52884,0.0015827840000000037,0.412286104,0.14421800885416905,0.57087,0.02893931200000005,0.44842467617410053,0.3497999511868532,0.015261048000000027
bidmc_03,54375,435.0,0.353398056,0.14128025340740602,0.48094,0.01411979200000002,0.41212764799999996,0.13805742856213168,0.57087,-0.029256223999999997,0.39977541255063803,0.3349862457562807,0.02168800800000001
bidmc_03,55000,440.0,0.345840744,0.13317108292901453,0.43988999999999995,-0.02923441600000004,0.40941888,0.1247090304503471,0.47213999999999995,0.023838687999999886,0.3850636461312043,0.3045993527484477,0.026536551999999963
bidmc_03,55625,445.0,0.353357568,0.14609515830993638,0.48974000000000006,0.04426806400000005,0.433941104,0.12948472415069348,0.43401,0.025205760000000133,0.413447335200703,0.298391704693153,0.03473691200000009
bidmc_03,56250,450.0,0.339131864,0.1430640462186272,0.48094000000000003,-0.07271947200000001,0.439341648,0.13226327920267247,0.48094,-0.014404671999999952,0.4218524991391787,0.3010481222452879,0.04356207199999998
bidmc_03,56875,455.0,0.329338848,0.11690223837699985,0.37732000000000004,0.053133439999999976,0.42504630400000004,0.14391119228503246,0.49854000000000004,-0.014186016000000079,0.35495928927798576,0.3385768852801204,0.03365972800000003
bidmc_03,57500,460.0,0.339545768,0.12714848532613424,0.43793,-0.032719600000000015,0.426046456,0.1571897687652732,0.53372,0.016186320000000032,0.37446530878519285,0.3689489669556276,0.024452960000000024
bidmc_03,58125,465.0,0.324147656,0.12250468310732314,0.42619999999999997,0.0019233759999999767,0.42800622400000005,0.15610878493865046,0.53372,-0.012266783999999975,0.3779274750635497,0.36473399556137037,0.007095079999999976
bidmc_03,58750,470.0,0.33648623199999994,0.11046072648087271,0.33821999999999997,0.022753776000000003,0.420121968,0.14941690393408297,0.52101,-0.0035017280000000373,0.328276130491848,0.35565040551194754,0.01312775200000002
bidmc_04,0,0.0,-0.21228157128000003,0.11437849771937235,0.48192999999999997,0.02413016336000004,0.425109656,0.15179480511888957,0.63343,-0.0037926560000000054,0.5388030540128869,0.35707127774018815,0.013961409680000023
bidmc_04,625,5.0,-0.20013229208,0.11818656632867812,0.48193,0.00016839503999999117,0.42757536800000007,0.14358122790471106,0.5679399999999999,0.008724079999999967,0.5905392606115477,0.33580253412113514,0.004446237519999979
bidmc_04,1250,10.0,-0.21639739768,0.11766713649718753,0.5060199999999999,-0.032698606239999956,0.423350072,0.14694736854559465,0.56402,-0.017174671999999946,0.5437523464068726,0.34710522368913393,0.02493663911999995
bidmc_04,1875,15.0,-0.21827220871999997,0.13441168833192998,0.6445799999999999,0.02894898415999997,0.412875752,0.14269104743926472,0.64418,-0.0037739680000000164,0.6157956311731907,0.3456020392237167,0.016361476079999993
bidmc_04,2500,20.0,-0.20190591024,0.1532174218245933,0.64759,0.0037836127999999747,0.424462248,0.1493024910007415,0.63734,0.02694696000000002,0.758851797803596,0.3517442127303835,0.015365286399999997
bidmc_04,3125,25.0,-0.20702372224,0.16096443451202264,0.67771,-0.014019236800000001,0.43652163999999993,0.1528407717267562,0.61974,-0.0028281760000000156,0.7775131045722138,0.350132519419282,0.008423706400000008
bidmc_04,3750,30.0,-0.20776618304000002,0.14658219696372304,0.67771,0.012534315200000007,0.42803984,0.14818313753074064,0.56207,-0.014135424000000008,0.7055117888155732,0.34618925037793274,0.013334869600000007
bidmc_04,4375,35.0,-0.21172063040000003,0.1384106707585491,0.64157,-0.020443209919999983,0.423731064,0.15263813807062737,0.6451600000000001,0.005517871999999979,0.6537389235906295,0.360223242559778,0.012980540959999981
bidmc_04,5000,40.0,-0.21557095128,0.14587276334735638,0.64157,0.012742568159999967,0.410744136,0.15247073776726308,0.67449,-0.031491728,0.6766778445953137,0.3712052180388159,0.022117148079999982
bidmc_04,5625,45.0,-0.17640712224000002,0.16794787891851948,0.66265,0.06558508992,0.392735136,0.14635592669223035,0.72336,-0.004526271999999942,0.9520416451688628,0.37265714375778847,0.035055680959999974
bidmc_04,6250,50.0,-0.18285066624000001,0.17424834833586442,0.72892,-0.07847217791999994,0.4158420480000001,0.14759340438151597,0.68328,0.05074009599999996,0.9529491960284168,0.3549257468445546,0.06460613695999995
bidmc_04,6875,55.0,-0.2015539576,0.15413356726723906,0.72289,0.041065595199999944,0.447693376,0.14805505885839437,0.61485,0.012962559999999956,0.7647222827092548,0.33070564830681365,0.02701407759999995
bidmc_04,7500,60.0,-0.1955707696,0.14869735646639834,0.6204799999999999,-0.02909921919999997,0.44006239999999996,0.15192201956319565,0.6217,-0.02822451199999998,0.7603211689014565,0.34522757303423934,0.028661865599999975
bidmc_04,8125,65.0,-0.23110840879999997,0.12088883180181496,0.64759,-0.04197605920000003,0.42540531200000004,0.14368392228033955,0.58163,-0.0010896639999999902,0.523080528956011,0.33775691198568664,0.02153286160000001
bidmc_04,8750,70.0,-0.21482410248,0.13247569113114446,0.57831,0.07454467184000002,0.42182609600000004,0.1464351257297196,0.63343,-0.006068768000000002,0.6166676501107584,0.34714490159190625,0.04030671992000001
bidmc_04,9375,75.0,-0.20487223767999999,0.13928775413317718,0.5752999999999999,-0.05464094223999999,0.429226112,0.1566259962583589,0.63343,0.02086880000000002,0.6798728604598737,0.3649023835622921,0.037754871120000005
bidmc_04,10000,80.0,-0.2387589392,0.10507225373758261,0.4759,-0.013132460800000051,0.4302724719999999,0.15372777338207047,0.59433,-0.018776079999999973,0.4400748889853236,0.3572792267845658,0.015954270400000012
bidmc_04,10625,85.0,-0.21330826704,0.11016091261036431,0.49398,0.06403380512000004,0.421966752,0.15078021140139874,0.57771,0.00216463999999994,0.5164375375670238,0.3573263849826106,0.03309922255999999
bidmc_04,11250,90.0,-0.21623844288,0.10335549088842605,0.48796,-0.0698941568,0.42443330399999996,0.1524962430641607,0.58162,0.0027684639999999705,0.4779678004709908,0.35929292620080194,0.03633131039999998
bidmc_04,11875,95.0,-0.21484095496,0.1339590321165297,0.6355500000000001,0.07268913264000001,0.42202634400000005,0.14274750027707547,0.58162,-0.007582383999999942,0.6235236136324986,0.3382423018473312,0.04013575831999998
bidmc_04,12500,100.0,-0.19448922632,0.14686215961278865,0.62049,-0.03198567536000002,0.42550232800000004,0.13880862619109957,0.5562,0.014534351999999973,0.7551133154174666,0.3262221868946218,0.023260013679999997
bidmc_04,13125,105.0,-0.21938297848000002,0.11538561611983758,0.59337,-0.01780182895999996,0.42569929599999995,0.14150240364652603,0.56011,-0.014140415999999933,0.5259527925388436,0.33239911970022695,0.015971122479999947
bidmc_04,13750,110.0,-0.20799962568000002,0.11438402074713543,0.5060199999999999,0.04056853455999995,0.42423387199999996,0.14548999103404883,0.59824,0.011209568000000059,0.549921522462679,0.3429467981926032,0.025889051280000006
bidmc_04,14375,115.0,-0.20698061192,0.11486355245003564,0.49698,-0.03853050704000002,0.42664412,0.1556698144917813,0.70284,-0.006389072000000162,0.5549456851965734,0.3648695536275706,0.022459789520000092
bidmc_04,15000,120.0,-0.23171557752,0.10556284065622992,0.49095999999999995,-0.010939424159999961,0.420370792,0.14888340553578405,0.71848,-0.006157583999999938,0.4555687891908318,0.35417078017400383,0.00854850407999995
bidmc_04,15625,125.0,-0.20928903759999998,0.1275293998816153,0.51807,0.05579250399999999,0.41968888,0.1561938951432661,0.7438899999999999,0.004793760000000036,0.6093429068293851,0.3721650260979991,0.030293132000000014
bidmc_04,16250,130.0,-0.201937308,0.1371363447905752,0.55723,-0.04108904480000003,0.41790430400000006,0.1632806661305483,0.7438899999999999,-0.008362912000000056,0.6791001972274384,0.39071211723732585,0.024725978400000043
bidmc_04,16875,135.0,-0.20767223056000003,0.14399270338775502,0.61446,0.02961919968000004,0.41612596,0.14667603104501567,0.62366,0.004806224000000026,0.693361888768583,0.3524790391975941,0.017212711840000033
bidmc_04,17500,140.0,-0.21555636735999997,0.13548108797384942,0.61446,-0.045387473280000035,0.42262288,0.15471763591221785,0.6979500000000001,0.008187615999999953,0.6285152283734471,0.36608824828407205,0.026787544639999994
bidmc_04,18125,145.0,-0.20925746424,0.13875877981325058,0.5752999999999999,0.057985279520000016,0.42535849600000003,0.15077029170860545,0.6979500000000001,-0.002716384000000016,0.6630975732198204,0.3544538046673947,0.030350831760000016
bidmc_04,18750,150.0,-0.20084066096,0.15776458720391115,0.6476,-0.041151672959999996,0.42666208800000005,0.14356434274247995,0.6177900000000001,0.005323568000000112,0.7855172400477799,0.33648175054337004,0.023237620480000054
bidmc_04,19375,155.0,-0.20326724616,0.1547018394832086,0.6476,0.03629850256,0.42592617599999993,0.14971998306684725,0.61877,-0.006795392000000122,0.7610723386742709,0.3515154503004694,0.02154694728000006
bidmc_04,20000,160.0,-0.20689385911999997,0.156189408015953,0.70181,-0.043551728479999996,0.42137718399999996,0.15029088461909507,0.63441,-0.002302591999999992,0.754921648030715,0.35666508216546655,0.022927160239999994
bidmc_04,20625,165.0,-0.23077322800000002,0.14786913021896003,0.71687,-0.004207009280000007,0.426130072,0.1548306916424351,0.6041,0.011808367999999958,0.6407523556701488,0.36334053491043034,0.008007688639999982
bidmc_04,21250,170.0,-0.21704564624,0.13737525674412054,0.6656599999999999,0.0316621728,0.42725396,0.1489035684872542,0.59922,-0.009560591999999868,0.6329296449585193,0.34851220565644037,0.020611382399999933
bidmc_04,21875,175.0,-0.21017082864,0.13529312136148064,0.63554,-0.0179125376,0.42766930400000003,0.15040645774884662,0.5913999999999999,0.010391280000000003,0.6437262416992245,0.35168786876735453,0.014151908800000002
bidmc_04,22500,180.0,-0.21248625999999998,0.11973400144910656,0.6265,0.013281674879999955,0.424000016,0.1527751385387025,0.5913999999999999,-0.017729856000000044,0.5634879072237393,0.3603178595654651,0.01550576544
bidmc_04,23125,185.0,-0.22300179607999998,0.09671631987170592,0.382531,-0.03431274703999998,0.42726341599999995,0.1465657262186864,0.57772,0.024256656000000043,0.43370003233954935,0.34303284039147885,0.02928470152000001
bidmc_04,23750,190.0,-0.24716071271999998,0.08309320679298489,0.382531,-0.014005086239999964,0.437991744,0.14155929195696926,0.55132,-0.00280000000000008,0.3361896382677927,0.3232000846958535,0.008402543120000022
bidmc_04,24375,195.0,-0.23011764080000002,0.11531304985041886,0.56627,0.04809123007999999,0.431529896,0.14991719660742456,0.60997,-0.01012369599999996,0.5011026027684535,0.3474077939657525,0.029107463039999976
bidmc_04,25000,200.0,-0.21769154327999998,0.1227216427046705,0.56627,-0.023239035039999995,0.430776088,0.15936830846757538,0.62952,0.008616080000000081,0.5637383846759683,0.3699553966704362,0.015927557520000038
bidmc_04,25625,205.0,-0.23434708799999998,0.09228149237593072,0.47591000000000006,-0.01007205440000003,0.43110844800000003,0.15054112885451368,0.62952,-0.007951360000000018,0.3937795830274951,0.349194687225954,0.009011707200000024
bidmc_04,26250,210.0,-0.2217999032,0.11704111072134928,0.62048,0.03516642400000006,0.41588442400000003,0.14603622141930483,0.58162,-0.022496688000000098,0.527685455887491,0.35114532270624815,0.028831556000000078
bidmc_04,26875,215.0,-0.2079951136,0.14046635297369217,0.62951,-0.0075568448000000454,0.430960848,0.14947828172868757,0.70185,0.052649536,0.675331622992845,0.34684806189314366,0.03010319040000002
bidmc_04,27500,220.0,-0.1826360712,0.15667652314965266,0.65361,0.058274929600000025,0.44103849599999995,0.14517733962894477,0.6344099999999999,-0.03249424000000001,0.8578571815690212,0.3291708360489891,0.045384584800000016
bidmc_04,28125,225.0,-0.18278547688,0.1488187454039772,0.64759,-0.05857374096000001,0.427607472,0.14769369675273625,0.5943299999999999,0.005632192000000036,0.8141671525387365,0.34539469263073036,0.03210296648000002
bidmc_04,28750,230.0,-0.20663622975999996,0.13640675164507748,0.59639,0.010872235200000024,0.416527088,0.1420031033491883,0.62561,-0.027792959999999978,0.660126695482261,0.3409208344892898,0.0193325976
bidmc_04,29375,235.0,-0.20643616416,0.138699803302079,0.61446,-0.01047210400000001,0.426909072,0.14370312618429293,0.60215,0.048556928,0.6718741940989809,0.3366121710623237,0.029514516000000005
bidmc_04,30000,240.0,-0.23260468695999997,0.10725465473782238,0.61446,-0.04186494159999998,0.435897544,0.15232855135596893,0.59726,-0.03057998399999995,0.4611007415148299,0.3494587294514315,0.036222462799999966
bidmc_04,30625,245.0,-0.24628198608,0.09606570970529153,0.48795,0.014510343360000011,0.42346503999999996,0.147121997862041,0.57674,0.005714975999999983,0.3900623069191087,0.34742336802743623,0.010112659679999997
bidmc_04,31250,250.0,-0.21957129224,0.1411173114493741,0.69277,0.03891104431999995,0.422972336,0.15087178293154457,0.61192,-0.006700384000000115,0.6426917987226187,0.3566933659656139,0.022805714160000032
bidmc_04,31875,255.0,-0.20294212904,0.14577230050373202,0.70482,-0.005652717920000022,0.41792825599999994,0.1703498551297255,0.73998,-0.003387775999999898,0.7182913813997633,0.40760452321558827,0.00452024695999996
bidmc_04,32500,260.0,-0.230317924,0.12753195548123403,0.60241,-0.04909887199999996,0.417511616,0.16247452907464774,0.73998,0.002554496000000017,0.5537189618046063,0.3891487893976544,0.02582668399999999
bidmc_04,33125,265.0,-0.16415176728,0.16335205257379473,0.64157,0.18143118543999998,0.424873584,0.14448721424941013,0.61095,0.012169440000000031,0.9951221370222808,0.340070269417222,0.09680031272
bidmc_04,33750,270.0,-0.14761699128,0.15017685287188973,0.57832,-0.14836163343999997,0.42703489600000005,0.15065561074407147,0.63539,-0.007846816000000034,1.0173343477289032,0.35279378655341764,0.07810422472
bidmc_04,34375,275.0,-0.22347946632,0.11995613946987202,0.56627,-0.0033633166400000025,0.42763876,0.15413990080126042,0.70088,0.009054543999999942,0.5367634202897524,0.36044333389687716,0.006208930319999972
bidmc_04,35000,280.0,-0.21186011272,0.12915668146713108,0.56627,0.02660202383999999,0.43392479999999994,0.14957249610540033,0.6920799999999999,0.0035175360000000433,0.6096290150133744,0.344696019700604,0.015059779920000016
bidmc_04,35625,285.0,-0.21773495599999995,0.12941965795703314,0.55723,-0.03835171039999999,0.43646384,0.15340289678560312,0.59922,0.001560543999999997,0.5943880851586735,0.35146679119812524,0.019956127199999993
bidmc_04,36250,290.0,-0.2346215248,0.12280797497786676,0.56325,0.004578572799999986,0.423088192,0.1532268148290342,0.59922,-0.028311840000000033,0.523427897992967,0.36216196898037095,0.01644520640000001
bidmc_04,36875,295.0,-0.20703368312000003,0.14454733989146834,0.6144499999999999,0.05059711056000002,0.412538936,0.14627986227306855,0.5757599999999999,0.007213328000000019,0.6981793471178295,0.35458351909248503,0.02890521928000002
bidmc_04,37500,300.0,-0.20853280463999999,0.14448547110701807,0.59939,-0.05359535360000006,0.42594033600000003,0.15055909484334418,0.5884699999999999,0.01958947199999994,0.6928635448648192,0.35347378175886685,0.0365924128
bidmc_04,38125,305.0,-0.20231092312,0.13862334609496899,0.6295200000000001,0.06603911664000003,0.42393903199999994,0.15117110174032264,0.5826,-0.02359207999999996,0.6851961266402744,0.356586050690119,0.04481559832
bidmc_04,38750,310.0,-0.18888425128,0.13764004066640034,0.62651,-0.039185772960000004,0.420476944,0.1481733350724781,0.58162,0.016667903999999956,0.728696601421597,0.35239264552834215,0.02792683847999998
bidmc_04,39375,315.0,-0.20825539976,0.10499133799937681,0.49699,0.00044347600000002596,0.43418967199999986,0.14382942366502208,0.57282,0.010757552000000059,0.5041445934932685,0.3312586680006385,0.0056005140000000425
bidmc_04,40000,320.0,-0.2161710956,0.09369377533808804,0.382535,-0.01627486768,0.43621280800000006,0.14810816279312608,0.57673,-0.006711279999999986,0.43342215413157165,0.33953112000784275,0.011493073839999993
bidmc_04,40625,325.0,-0.22922878632000002,0.0922266756494542,0.385545,-0.00984051376000003,0.42661045599999997,0.14850779801327627,0.64809,-0.012493424000000086,0.4023328605328266,0.34811019705311497,0.011166968880000058
bidmc_04,41250,330.0,-0.22659747200000002,0.12440529611999908,0.67168,0.015103142400000047,0.432843808,0.14361366852350488,0.6168100000000001,0.024960128000000026,0.5490120697724699,0.3317902071809185,0.020031635200000036
bidmc_04,41875,335.0,-0.20094223936,0.15772562847746846,0.67168,0.036207322879999976,0.43052094399999996,0.1447751498540715,0.52884,-0.029605855999999986,0.7849262755981304,0.33627821269447655,0.03290658943999998
bidmc_04,42500,340.0,-0.20653212175999996,0.14269269909857046,0.62048,-0.047387087679999995,0.47253583199999993,0.12289914860888083,0.50734,0.11363563199999999,0.6908949900267585,0.2600837443479556,0.08051135983999999
bidmc_04,43125,345.0,-0.19851754728,0.13643557636670192,0.54217,0.06341623663999998,0.592559432,0.19180767237229426,0.76149,0.12641156799999997,0.6872686619767909,0.32369301427182406,0.09491390231999998
bidmc_04,43750,350.0,-0.19494449528,0.12891547067730388,0.54217,-0.056270132640000026,0.544054648,0.23364013859967658,0.8827,-0.2234211359999999,0.661289815864392,0.429441619544912,0.13984563431999997
bidmc_04,44375,355.0,-0.205963824,0.1349629975974327,0.65663,0.03423147520000003,0.4053167736,0.16080619870445026,0.7263,-0.05405461280000001,0.6552720749900124,0.3967410490691846,0.04414304400000002
bidmc_04,45000,360.0,-0.1731541184,0.1725165311607641,0.65964,0.03138793599999998,0.4402164696,0.15072587592062975,0.7018599999999999,0.12385400479999997,0.9963120510376093,0.3423895831703035,0.07762097039999998
bidmc_04,45625,365.0,-0.19295880952000002,0.15721548694727144,0.66567,-0.07099731824,0.47837103200000003,0.12162671058141372,0.59629,-0.047544879999999956,0.8147576810857925,0.25425129908391825,0.059271099119999976
bidmc_04,46250,370.0,-0.22262644232000003,0.1254975744237102,0.5993999999999999,0.011662052640000004,0.44303974399999996,0.15015290841144058,0.6647099999999999,-0.02311769600000002,0.5637111629900622,0.33891444623305483,0.017389874320000012
bidmc_04,46875,375.0,-0.21758778968,0.13909536897853939,0.59338,-0.0015847473599999995,0.42571655199999997,0.15264931288686268,0.66667,-0.011528687999999954,0.6392579745634044,0.3585694603610393,0.006556717679999977
bidmc_04,47500,380.0,-0.18685512392,0.1738403544438147,0.7108399999999999,0.06305007888000003,0.4300559439999999,0.14949634621390873,0.62757,0.020207472000000004,0.9303433614958329,0.3476198868536553,0.041628775440000015
bidmc_04,48125,385.0,-0.18022413584000002,0.17185591106896272,0.7108399999999999,-0.04978810272000003,0.435078784,0.15101639680074924,0.6060599999999999,-0.010161792000000114,0.9535623888863798,0.3471004683608771,0.029974947360000073
bidmc_04,48750,390.0,-0.20553263767999996,0.1361202176730485,0.63253,-0.0008289009599999897,0.434129464,0.14469432938589094,0.5591400000000001,0.008263151999999996,0.6622770813066481,0.33329688051076495,0.004546026479999993
bidmc_04,49375,395.0,-0.18491093536000003,0.1433516901313966,0.55121,0.042072305600000026,0.42097071999999996,0.14215606414009077,0.64419,-0.03458063999999994,0.7752430358392447,0.33768554367521597,0.03832647279999998
bidmc_04,50000,400.0,-0.20124572576,0.1407360356248179,0.54819,-0.07474188640000004,0.41428367200000005,0.14545444288861173,0.66374,0.02120654400000005,0.6993208713996913,0.3510978144241159,0.047974215200000045
bidmc_04,50625,405.0,-0.207595048,0.13061635421232815,0.51506,0.06204324192000002,0.410097464,0.14490122647889736,0.55914,-0.029578959999999987,0.6291851673993724,0.3533327705389732,0.045811100960000004
bidmc_04,51250,410.0,-0.19634206792,0.1448528611454296,0.63855,-0.03953728175999996,0.401844024,0.142939813070143,0.69892,0.01307207999999993,0.7377538849726537,0.3557088044722012,0.026304680879999945
bidmc_04,51875,415.0,-0.2322072352,0.1339983186817976,0.6506000000000001,-0.03219305279999998,0.41499208,0.1486887850274983,0.739,0.013224032000000052,0.577061009771619,0.3582922033964959,0.022708542400000017
bidmc_04,52500,420.0,-0.21209645351999998,0.13798065654600727,0.56325,0.07241461615999994,0.419645056,0.1565774834352528,0.65396,-0.003918080000000046,0.650553103095112,0.3731179673835724,0.038166348079999995
bidmc_04,53125,425.0,-0.18245294632,0.14340316164118383,0.60241,-0.013127601759999968,0.421508544,0.15890756691196323,0.63245,0.007645056000000039,0.7859690871781623,0.37699636739889153,0.010386328880000004
bidmc_04,53750,430.0,-0.20291534407999998,0.12168039738386499,0.58133,-0.027797193760000005,0.4258926160000001,0.15257936557777577,0.59238,0.0011230879999999943,0.5996579424666373,0.3582569915247937,0.01446014088
bidmc_04,54375,435.0,-0.19335884328,0.13443679653766347,0.6054200000000001,0.04691019535999999,0.42290840799999996,0.14425035474017225,0.5689099999999999,-0.007091503999999971,0.6952674053577329,0.34109043689132656,0.02700084967999998
bidmc_04,55000,440.0,-0.18071333592,0.15013592254389985,0.6204799999999999,-0.021619180640000013,0.425382552,0.1463913286835231,0.58944,0.012039791999999938,0.8307914354418632,0.34413960764407525,0.016829486319999976
bidmc_04,55625,445.0,-0.20780963264000002,0.14699003373133135,0.63554,-0.03257341280000001,0.42609260799999993,0.15201485272406223,0.60508,-0.010619679999999965,0.7073268189600721,0.35676398300737305,0.021596546399999986
bidmc_04,56250,450.0,-0.1977398336,0.14534476390140605,0.6265000000000001,0.052713010879999994,0.415044272,0.14747718946762586,0.5806500000000001,-0.01147699200000002,0.735026555999135,0.35532795918134413,0.03209500144000001
bidmc_04,56875,455.0,-0.20278813128,0.12824643442430927,0.48795,-0.06280960624000001,0.41330970399999994,0.14765679625236486,0.5552299999999999,0.008007856000000035,0.632412761052927,0.35725374354777145,0.03540873112000002
bidmc_04,57500,460.0,-0.22929900328000002,0.12924483371760898,0.64157,0.009787862240000056,0.425936232,0.14918592306984654,0.6129,0.01724519999999996,0.5636495066238054,0.3502533046227021,0.013516531120000008
bidmc_04,58125,465.0,-0.20533478168000002,0.15020980632640396,0.65663,0.038140580959999976,0.43463157599999996,0.1414928885771869,0.6129,0.00014548800000002693,0.7315325419536199,0.32554598157223014,0.01914303448
bidmc_04,58750,470.0,-0.17688402879999998,0.1768726675990872,0.74097,0.018760924799999995,0.3901755272,0.18002549024101133,0.710654,-0.08905758560000004,0.9999301173140732,0.4613949781472435,0.05390925520000002
bidmc_05,0,0.0,0.293827571696,0.3364535490862967,1.0,0.098002143008,0.496666224,0.09895340200711557,0.41154,-0.027301759999999953,1.1450675036272417,0.19923481402734072,0.06265195150399998
bidmc_05,625,5.0,0.312280043136,0.34947334465686036,1.0,-0.06109720012800002,0.495016136,0.09618719554550649,0.39100999999999997,0.024001583999999965,1.1190988128749877,0.19431084007060817,0.04254939206399999
bidmc_05,1250,10.0,0.2840632575359999,0.3170699785879762,1.0,0.004663628928000041,0.498876288,0.09134228127291905,0.35777,-0.016281279999999954,1.1161910383878317,0.1830956900024662,0.010472454463999997
bidmc_05,1875,15.0,0.31041401656,0.34274290201049956,1.0,0.048037889119999955,0.49894115199999994,0.10031583419636651,0.44086000000000003,0.01641100799999995,1.1041440772059137,0.20105704397644586,0.03222444855999995
bidmc_05,2500,20.0,0.30968830456,0.34607797403776447,1.0,-0.049489313119999934,0.49649959199999993,0.09981535066428177,0.44086000000000003,-0.021294127999999968,1.1175005689313835,0.20103772739163578,0.03539172055999995
bidmc_05,3125,25.0,0.29898568880000004,0.3380912637485401,1.0,0.028084081599999977,0.49340612,0.09154009102674959,0.37928,0.015107183999999996,1.1307903542645612,0.18552648982193365,0.021595632799999986
bidmc_05,3750,30.0,0.3137721048,0.35171411583340406,1.0,0.0014887503999999607,0.493158272,0.09482275269688187,0.3783,-0.015602879999999986,1.1209186206624937,0.19227612270642225,0.008545815199999973
bidmc_05,4375,35.0,0.312636532672,0.34782206201578625,1.0,-0.003759894656000018,0.492541912,0.09242164311861295,0.39394,0.01437016000000002,1.112540964109705,0.18764180920466267,0.00906502732800002
bidmc_05,5000,40.0,0.395670033472,0.40376670781989343,1.0,0.169826896256,0.4898251679999999,0.09221205088626853,0.38806999999999997,-0.019803648000000063,1.0204606192089782,0.18825464401540212,0.09481527212800003
bidmc_05,5625,45.0,0.292178415056,0.32920014244065804,1.0,-0.37681013308799993,0.500871928,0.09298521337612134,0.36266000000000004,0.04189716800000004,1.1267054606758062,0.18564631501928835,0.209353650544
bidmc_05,6250,50.0,0.158601122256,0.09038639744606652,0.26686,0.10965554748799997,0.506611096,0.0898002513599978,0.34213000000000005,-0.030418832000000007,0.5698939973840556,0.177256429660925,0.07003718974399999
bidmc_05,6875,55.0,0.30109804544,0.3304151051111137,1.0,0.17533829888000002,0.49102481600000003,0.09536665356321435,0.38220000000000004,-0.0007537279999999535,1.0973635091678016,0.19421922525396168,0.08804601343999999
bidmc_05,7500,60.0,0.30181266144,0.33129607305556846,1.0,-0.17390906688000002,0.49212584800000003,0.09390789669266848,0.38220000000000004,0.002955791999999957,1.0976841521185732,0.19082051116355367,0.08843242943999999
bidmc_05,8125,65.0,0.31464783104,0.34930538518954535,1.0,0.19957940608000002,0.489046176,0.09188440157555049,0.41447,-0.009115135999999968,1.1101435973399172,0.18788453565377605,0.10434727104
bidmc_05,8750,70.0,0.31199525824,0.3494181911414275,1.0,-0.20488455167999997,0.493653928,0.09246568537317407,0.41447,0.018330639999999954,1.1199435310940207,0.18730834056046144,0.11160759583999996
bidmc_05,9375,75.0,0.3224633,0.34919064931088384,1.0,0.2258206352,0.494790968,0.09391582460960972,0.41447,-0.016056559999999998,1.0828815757616699,0.18980870887865692,0.1209385976
bidmc_05,10000,80.0,0.3574209048,0.38593685986932214,1.0,-0.15590542560000004,0.49165124799999993,0.09429952246603637,0.41447,0.009777120000000084,1.0797795397718506,0.19180126369733672,0.08284127280000006
bidmc_05,10625,85.0,0.29642623056,0.3487930825919553,1.0,0.03391607712,0.4982428400000001,0.10005216596403299,0.4565,0.0034060639999998754,1.1766566854638407,0.20080963964157184,0.018661070559999937
bidmc_05,11250,90.0,0.37736470415999995,0.40899403646863675,1.0,0.12796087008,0.486046504,0.10853306209196341,0.4565,-0.02779873599999999,1.0838134784374223,0.22329723164664872,0.07787980304
bidmc_05,11875,95.0,0.28892359568000003,0.32184015945313926,1.0,-0.30484308704,0.497940192,0.10630394245014216,0.47019000000000005,0.051586111999999906,1.1139244088779312,0.2134869421490684,0.17821459951999996
bidmc_05,12500,100.0,0.31144246768,0.3382251454597247,1.0,0.34988083103999995,0.5103466959999999,0.10555135282602296,0.4565,-0.026773103999999825,1.0859920998800405,0.20682243429981698,0.1883269675199999
bidmc_05,13125,105.0,0.305130954176,0.3422191532158905,1.0,-0.36250385804799995,0.510732168,0.1010162040412318,0.4565,0.027544047999999932,1.121544789171765,0.19778665332585527,0.19502395302399994
bidmc_05,13750,110.0,0.29073097897600003,0.3204197138455704,1.0,0.33370390764799995,0.503922488,0.08692079836707585,0.40468999999999994,-0.04116340800000001,1.1021137577439362,0.17248808685630437,0.18743365782399998
bidmc_05,14375,115.0,0.305800424896,0.35087574961607965,1.0,-0.303565015808,0.4450697599999999,0.08110560684109576,0.32258,-0.07654204799999997,1.1473973665603716,0.18223081390719933,0.19005353190399998
bidmc_05,15000,120.0,0.339723292096,0.37644853914556,1.0,0.3714107502080001,0.46034676,0.0827269087800481,0.49365000000000003,0.107096048,1.1081001503395065,0.179705248875433,0.23925339910400004
bidmc_05,15625,125.0,0.32076869296,0.35226976999505655,1.0,-0.40931994848000003,0.5598018239999999,0.09558956374350196,0.38515,0.09181408000000002,1.0982015375092953,0.1707557726495177,0.25056701424000005
bidmc_05,16250,130.0,0.24776852736000002,0.26875620832628844,1.0,0.26331961728000003,0.527000504,0.11555206375857587,0.42718,-0.15741672,1.0847024296728611,0.21926325234657368,0.21036816864000002
bidmc_05,16875,135.0,0.30783807144,0.34148836735294386,1.0,-0.14318052912000004,0.4654800800000001,0.06005572862861294,0.23851999999999995,0.034375871999999974,1.109308073713776,0.12901862440598647,0.08877820056
bidmc_05,17500,140.0,0.37239559944,0.3806767571336615,1.0,0.27229558511999996,0.47699928,0.05465867864302612,0.22189999999999993,-0.01133747200000007,1.022234783309281,0.11458835756454089,0.14181652856000002
bidmc_05,18125,145.0,0.30985799295999994,0.3446341888423814,1.0,-0.39737079808,0.523274575776,0.13852657642732505,1.0,0.10388806355200014,1.1122290999211717,0.2647296813383556,0.2506294308160001
bidmc_05,18750,150.0,0.16680339296,0.13270229111419832,1.0,0.11126159807999997,0.523039199776,0.15204231641668006,1.0,-0.10435881555200005,0.7955563325362814,0.29068954256631613,0.10781020681600001
bidmc_05,19375,155.0,0.39344020960000003,0.30802401036889976,1.0,0.34201203519999995,0.5060606,0.09928040851829731,0.38416999999999996,0.07040161599999989,0.7828971720630349,0.19618245786342475,0.20620682559999992
bidmc_05,20000,160.0,0.33525762768,0.351177201679622,1.0,-0.45837719903999996,0.540449784,0.08773295440342439,0.35678999999999994,-0.0016232479999997995,1.047481474555268,0.16233292096292784,0.23000022351999988
bidmc_05,20625,165.0,0.28622318607999997,0.32255872203320296,1.0,0.36030831584,0.50178232,0.10266783675707597,0.46724999999999994,-0.07571168000000017,1.1269443244850297,0.2046059178632641,0.2180099979200001
bidmc_05,21250,170.0,0.29534460016,0.32474141835505144,1.0,-0.34206548768,0.496016352,0.10323685255475439,0.47897999999999996,0.06417974400000015,1.0995302390796633,0.20813153438784213,0.20312261584000008
bidmc_05,21875,175.0,0.29896458224,0.35524194571958434,1.0,0.34930545183999995,0.5089414800000001,0.10390854310656847,0.45259,-0.03832948800000008,1.1882369303447362,0.20416559275336665,0.19381746992
bidmc_05,22500,180.0,0.37193272456,0.3924566626814433,1.0,-0.20336916719999992,0.49603672800000004,0.10259767580493243,0.44086,0.01251998400000004,1.0551790191806945,0.2068344200724434,0.10794457559999998
bidmc_05,23125,185.0,0.26165627393600005,0.3586184809857471,1.0,-0.017183734048000054,0.50514008,0.10241583024354,0.41056,0.005686719999999923,1.3705656853761432,0.20274698356257223,0.011435227023999989
bidmc_05,23750,190.0,0.373840863936,0.39977796658551035,1.0,0.24155291404799994,0.49363505599999996,0.10147522761993129,0.38220999999999994,-0.028696767999999928,1.069377202372259,0.2055668875612508,0.13512484102399994
bidmc_05,24375,195.0,0.307185886176,0.3381120373191157,1.0,-0.3748628695679999,0.497169128,0.09776510758568016,0.37048000000000003,0.03576491199999993,1.100672107224647,0.1966431651454332,0.20531389078399992
bidmc_05,25000,200.0,0.304355803296,0.343903700198667,1.0,0.369202703808,0.49526888799999996,0.09729626766101285,0.38905000000000006,-0.03956539200000003,1.1299359714466641,0.19645100584231937,0.20438404790400003
bidmc_05,25625,205.0,0.30797195264,0.34177364405250243,1.0,-0.36197040512000006,0.49673341600000004,0.09159841263827088,0.36656000000000005,0.042494448000000073,1.1097521425916037,0.18440118036490324,0.20223242656000007
bidmc_05,26250,210.0,0.28187065184,0.30834105781023086,1.0,0.30976780352,0.491950728,0.09278818251754917,0.36656000000000005,-0.05205982399999998,1.0939058816218095,0.1886123723861565,0.18091381376
bidmc_05,26875,215.0,0.30976424663999996,0.35073576053970845,1.0,-0.25398061391999993,0.4910710719999999,0.09971770798153565,0.41153,0.050300511999999964,1.1322631068014006,0.2030612483732035,0.15214056295999995
bidmc_05,27500,220.0,0.20480928184000005,0.20223205643145967,1.0,0.04407068432,0.5057993919999999,0.09404528876722287,0.39589,-0.020843871999999986,0.987411640737087,0.18593360197953918,0.03245727815999999
bidmc_05,28125,225.0,0.30778242529600003,0.3250651340128442,1.0,0.16187560259199998,0.495468112,0.09224044055378018,0.36364,0.00018131200000004455,1.0561489258241379,0.18616789285096783,0.08102845729600001
bidmc_05,28750,230.0,0.317826161296,0.34308766860912554,1.0,-0.14178813059200002,0.494665024,0.09015322240119553,0.37048000000000003,-0.0017874880000000037,1.0794787557177967,0.18225068637662395,0.07178780929600001
bidmc_05,29375,235.0,0.29140665216,0.32596784784214894,1.0,0.08894911232000002,0.49564266399999996,0.09172794247612394,0.38806999999999997,0.003742767999999952,1.1185974198892121,0.18506832456174394,0.04634594015999999
bidmc_05,30000,240.0,0.27046351616000003,0.30843178385917214,1.0,-0.13083538432000003,0.49610474400000004,0.09134519932987427,0.38806999999999997,-0.0028186080000000002,1.140377999444155,0.1841244541806278,0.06682699616000001
bidmc_05,30625,245.0,0.30472745056,0.3395175288718702,1.0,0.19936325312000003,0.4906189119999999,0.08806698670044442,0.39003000000000004,-0.008153056000000047,1.1141641951971937,0.17950145223711272,0.10375815456000004
bidmc_05,31250,250.0,0.39590475456,0.39809974523011765,1.0,-0.017008645119999943,0.48862567199999996,0.0912527096666637,0.39003000000000004,0.004166575999999977,1.0055416993687198,0.18675343548717233,0.01058761055999996
bidmc_05,31875,255.0,0.29077863353600003,0.32044804284989997,1.0,-0.19324359692800006,0.5078999200000001,0.08990142934744474,0.38317999999999997,0.03438192000000001,1.1020305616081838,0.17700584072075462,0.11381275846400003
bidmc_05,32500,260.0,0.313646999152,0.37899018053785366,1.0,0.23898032816000006,0.49848752,0.09053091827795408,0.38122999999999996,-0.05320671999999993,1.2083296611568295,0.18161083885734033,0.14609352407999998
bidmc_05,33125,265.0,0.29571622659200003,0.33294024988348453,1.0,-0.2748418732800001,0.495588624,0.09066404851773731,0.37341,0.04740892799999996,1.1258737061768842,0.18294178111714726,0.16112540064000003
bidmc_05,33750,270.0,0.27787136265600004,0.3452202706411926,1.0,0.23915214540799998,0.5042267760000001,0.09452155923262069,0.37439000000000006,-0.030132623999999997,1.2423699404340107,0.1874580571154824,0.13464238470399997
bidmc_05,34375,275.0,0.30096431928,0.33923879918782496,1.0,-0.19296623215999997,0.492918096,0.09176201206629453,0.37439000000000006,0.0075152640000000215,1.1271690705074815,0.18616039185930533,0.10024074808
bidmc_05,35000,280.0,0.28448495248,0.33050479052002674,1.0,0.16000749855999996,0.4924998159999999,0.09123805718605665,0.39394,-0.008351823999999952,1.161761372183261,0.1852546315091926,0.08417966127999996
bidmc_05,35625,285.0,0.28300219888,0.3259343986706152,1.0,-0.16297300575999998,0.48985116,0.09120948280883079,0.39394,0.003054511999999898,1.15169863789709,0.18619798024128503,0.08301375887999994
bidmc_05,36250,290.0,0.33001066208,0.33379042798238273,1.0,0.25698993216,0.4840147919999999,0.1005325842373344,0.44673,-0.01472724799999997,1.0114504011117846,0.20770517387857135,0.13585859007999998
bidmc_05,36875,295.0,0.308974548176,0.3468274362524176,1.0,-0.299062159968,0.49448352799999995,0.10359124230297277,0.44769999999999993,0.03566471999999998,1.1225077139594757,0.20949339450914586,0.167363439984
bidmc_05,37500,300.0,0.24874216609599997,0.22104717606121058,1.0,0.1785973958079999,0.492339272,0.0958969438271628,0.44867999999999997,-0.039953231999999894,0.8886562775996009,0.19477777724257098,0.1092753139039999
bidmc_05,38125,305.0,0.34204412463999995,0.3683502410608165,1.0,0.008006521280000067,0.4864350480000001,0.09729100863552446,0.40665000000000007,0.028144783999999867,1.0769053979310552,0.2000078099383055,0.018075652639999967
bidmc_05,38750,310.0,0.27845009264,0.32109803950177096,1.0,-0.13519458527999997,0.49947295999999997,0.0890441280590607,0.4037200000000001,-0.002068959999999953,1.1531577644656896,0.17827581653918598,0.06863177263999996
bidmc_05,39375,315.0,0.35605618559999996,0.3028502791960053,1.0,0.2904067711999999,0.481291896,0.09005716251628842,0.34114999999999995,-0.03429316799999993,0.8505664018145443,0.1871150878493092,0.16234996959999992
bidmc_05,40000,320.0,0.31175832328,0.3335060755037854,1.0,-0.37900249584,0.49318938400000006,0.09558913294146225,0.39686999999999995,0.0580881439999999,1.0697549378635711,0.19381791706113685,0.21854531991999995
bidmc_05,40625,325.0,0.292430928496,0.3499678874353412,1.0,0.34034770627200006,0.49456895999999995,0.0943415443123463,0.42619999999999997,-0.05532899199999991,1.1967499213757304,0.1907546999262679,0.19783834913599999
bidmc_05,41250,330.0,0.30505419009600004,0.3421700691126192,1.0,-0.315101183072,0.49033591199999993,0.09210413484316682,0.38025000000000003,0.04686289599999999,1.1216661123022993,0.18783846899775483,0.180982039536
bidmc_05,41875,335.0,0.32229917288000004,0.3426205497256904,1.0,0.34959114863999996,0.49143383199999996,0.08830856327104283,0.35972000000000004,-0.04466705600000004,1.063047986180436,0.17969536858356602,0.19712910232
bidmc_05,42500,340.0,0.316246277376,0.3474731244524485,1.0,-0.361696939648,0.492441064,0.09008002352435253,0.391,0.04668152000000009,1.0987387064184044,0.18292511974434528,0.20418922982400003
bidmc_05,43125,345.0,0.305527963776,0.3340858333640311,1.0,0.3402603124480001,0.487103888,0.09566299586320437,0.42228,-0.057355872000000085,1.0934669801353685,0.19639095853869645,0.1988080922240001
bidmc_05,43750,350.0,0.29773361584,0.33717654750767284,1.0,-0.3558490083200001,0.48991611199999996,0.09324711487613682,0.39686999999999995,0.06298032000000003,1.132473449741123,0.19033243091973656,0.20941466416000007
bidmc_05,44375,355.0,0.295863978256,0.366718384192959,1.0,0.352109733152,0.500983864,0.0931453150170716,0.39003,-0.040844816000000006,1.2394788540185124,0.1859244095188305,0.196477274576
bidmc_05,45000,360.0,0.31538311497599997,0.3562655077056672,1.0,-0.313071459712,0.494446944,0.09676880439449928,0.40078,0.027770976000000003,1.1296241338368556,0.19571080347034325,0.170421217856
bidmc_05,45625,365.0,0.20814861256000003,0.1505623475619937,1.0,0.09860245488,0.4989076000000001,0.09119189134829916,0.36754000000000003,-0.018849663999999988,0.7233371501885137,0.18278276090710632,0.05872605943999999
bidmc_05,46250,370.0,0.31784395183999997,0.3500408561518915,1.0,0.12078822368000003,0.4890598480000001,0.09277050188533474,0.36462000000000006,-0.0008458400000000976,1.1012943704957714,0.18969112384423528,0.06081703184000006
bidmc_05,46875,375.0,0.34702168784,0.36923383507362245,1.0,-0.06243275168000001,0.47985551199999993,0.09915944565606373,0.42618999999999996,-0.017562831999999917,1.0640048850173833,0.20664395121528276,0.03999779183999996
bidmc_05,47500,380.0,0.31043135184000004,0.34262759831766026,1.0,-0.010747920319999993,0.48549598399999994,0.1073634702056139,0.45845,0.028843775999999988,1.1037109898077053,0.2211413741874325,0.01979584815999999
bidmc_05,48125,385.0,0.25475285584,0.29527531618498354,1.0,-0.10060907168000005,0.4956996720000001,0.1021861435160972,0.45845,-0.008436399999999955,1.1590612248492653,0.20614485573281044,0.05452273584
bidmc_05,48750,390.0,0.33092092176,0.3602386749556999,1.0,0.25294520352,0.485640632,0.09364309882698552,0.38124,-0.011681680000000028,1.088591148751281,0.19282345799172654,0.13231344176
bidmc_05,49375,395.0,0.41187416175999997,0.4056721942668782,1.0,-0.09103872351999998,0.485688448,0.09158793046505252,0.37829999999999997,0.011777311999999984,0.9849396903017517,0.1885730292107407,0.05140801775999998
bidmc_05,50000,400.0,0.27024600065599996,0.3082714541800216,1.0,-0.19221759868799998,0.502145888,0.0866605711278864,0.39197999999999994,0.021137567999999995,1.1407025921905545,0.17258012187040855,0.10667758334399999
bidmc_05,50625,405.0,0.335913983872,0.3672016978090179,1.0,0.32355356512000005,0.48373168799999994,0.0886930247274872,0.38806999999999997,-0.05796596799999998,1.0931387864166837,0.18335131556684717,0.19075976656000002
bidmc_05,51250,410.0,0.30494326369600006,0.3377997885903721,1.0,-0.38549500547200005,0.48579461599999996,0.09219734947021277,0.37927000000000005,0.06209182400000002,1.1077427215588675,0.1897862937285395,0.22379341473600003
bidmc_05,51875,415.0,0.28454520848000003,0.31677422688966655,1.0,0.34469889504,0.487536176,0.10038184241274427,0.42326,-0.058608703999999956,1.113261106453758,0.20589577032120374,0.20165379951999998
bidmc_05,52500,420.0,0.32115895368,0.35389344213166934,1.0,-0.27147140464,0.48887737600000003,0.09809481212130754,0.40762000000000004,0.06129110399999993,1.1019226963903619,0.2006527941037579,0.16638125431999998
bidmc_05,53125,425.0,0.19353907607999998,0.20328511009695122,1.0,0.016231649440000023,0.5053481040000001,0.08649271216654722,0.30400000000000005,-0.028349648000000005,1.0503515045272749,0.1711543791844681,0.022290648720000014
bidmc_05,53750,430.0,0.30652287729600003,0.3423164913501177,1.0,0.20973595299199996,0.4938298,0.08974406623214708,0.40273,0.005313039999999991,1.1167694157135888,0.1817303947670884,0.10752449649599997
bidmc_05,54375,435.0,0.34514193089600004,0.3714286593136543,1.0,-0.13249784579199997,0.49050397599999995,0.09405267455267513,0.41348999999999997,-0.011964687999999946,1.076158965068228,0.19174662675119353,0.07223126689599996
bidmc_05,55000,440.0,0.32042802584,0.36025899004159145,1.0,0.08307003567999999,0.49437736000000004,0.09467620653105192,0.41153999999999996,0.01971145599999996,1.1243019857429513,0.191505563736754,0.051390745839999974
bidmc_05,55625,445.0,0.37582868184,0.38562564198651944,1.0,0.027731276320000053,0.48716162399999996,0.0951408288978114,0.42130999999999996,-0.034142927999999906,1.0260648922101099,0.19529582979217103,0.03093710215999998
bidmc_05,56250,450.0,0.30618869696,0.3501998757577993,1.0,-0.16701124608000004,0.491131048,0.10033164162646646,0.43596999999999997,0.042081775999999904,1.1437350088352214,0.20428648880690933,0.10454651103999997
bidmc_05,56875,455.0,0.35915224976,0.3990063192819234,1.0,0.27293835168,0.486729136,0.09957738172121972,0.41251,-0.05088560000000003,1.1109639674666867,0.20458437716546016,0.16191197584000003
bidmc_05,57500,460.0,0.30464115247999995,0.3377468479261904,1.0,-0.38196054624,0.4908253839999999,0.09217297536031126,0.3998,0.05907809599999997,1.1086674814259785,0.18779140316204207,0.22051932111999997
bidmc_05,58125,465.0,0.26805623568000003,0.35823810693205504,1.0,0.30879071264,0.49601091999999997,0.09362686990236083,0.38416,-0.04870702399999988,1.3364239395489055,0.1887593142970452,0.17874886831999995
bidmc_05,58750,470.0,0.32869834376,0.35274507888761697,1.0,-0.18750649647999998,0.486220176,0.09386796572190655,0.39003000000000004,0.029125535999999952,1.0731541926812425,0.19305610359082045,0.10831601623999997
bidmc_06,0,0.0,0.45664893360000003,0.3073562438408141,0.904203,0.09291237280000003,0.4169268,0.15904872869557934,0.5200400000000001,-0.0036178240000001027,0.673067532097883,0.38147786905929365,0.04826509840000007
bidmc_06,625,5.0,0.45682022159999996,0.31096521922629694,0.921799,-0.09256979679999999,0.4101326,0.15554168429909712,0.51125,-0.009970575999999953,0.6807153532341436,0.3792463828837655,0.05127018639999997
bidmc_06,1250,10.0,0.42874378960000004,0.30180390207656843,0.921799,0.03641693279999997,0.411419776,0.15605859418651002,0.50929,0.012544927999999955,0.7039243610590304,0.37931627008187363,0.02448093039999996
bidmc_06,1875,15.0,0.47105147999999997,0.30970769227148626,0.89247,0.048198448000000116,0.416588904,0.15722469276700396,0.50635,-0.002206671999999854,0.6574802286817093,0.3774087928136731,0.025202559999999985
bidmc_06,2500,20.0,0.462492208,0.3258097822007263,0.89247,-0.06531699200000002,0.415863944,0.1570400130780842,0.49951,0.0007567519999998606,0.7044639284750887,0.37762262807630215,0.03303687199999994
bidmc_06,3125,25.0,0.374447646736,0.3144078234601656,1.0,-0.110772130528,0.4195423999999999,0.1561910350692382,0.5063599999999999,0.0066001600000000216,0.8396553871960837,0.3722881472315814,0.05868614526400001
bidmc_06,3750,30.0,0.346271825136,0.2840096564100298,1.0,0.05442048732799992,0.41204843999999996,0.15168701669808923,0.52786,-0.021588079999999954,0.8201904272981395,0.36812819524300106,0.03800428366399994
bidmc_06,4375,35.0,0.42328844239999996,0.2841360400331058,0.947214,0.09961274720000002,0.408770352,0.15342808760079132,0.52786,0.015031903999999985,0.6712570916536184,0.37533962898846035,0.0573223256
bidmc_06,5000,40.0,0.461262896,0.29164959199356544,0.87195,-0.02366383999999999,0.41777984800000006,0.15790921029824986,0.51613,0.002987088000000082,0.6322835897686765,0.3779713958985737,0.013325464000000037
bidmc_06,5625,45.0,0.46793341199999994,0.30609116975772405,0.9022479999999999,0.03700487200000008,0.42021273600000003,0.15786172070478108,0.50733,0.0018786879999999617,0.6541326346345395,0.3756700630670985,0.01944178000000002
bidmc_06,6250,50.0,0.4470857424000001,0.3253708786238417,1.0,-0.07870021119999998,0.419867064,0.1569788749892797,0.50537,-0.002570032,0.7277578325790267,0.37387667329058805,0.04063512159999999
bidmc_06,6875,55.0,0.39801837320000005,0.32459971588928516,1.0,-0.01943452720000005,0.41496837599999997,0.15569940954545275,0.51417,-0.007227344000000024,0.8155374781874691,0.37520698767287536,0.013330935600000038
bidmc_06,7500,60.0,0.4392391388,0.3196203057442646,1.0,0.10187605839999997,0.41260908,0.15230835946498011,0.5171100000000001,0.002508752000000003,0.7276664346238128,0.36913387929102487,0.052192405199999986
bidmc_06,8125,65.0,0.43849306880000005,0.3110672719408123,0.901271,-0.1033681984,0.4190232,0.1554314417499883,0.54643,0.010319487999999932,0.7093990411138082,0.37093667084141757,0.056843843199999966
bidmc_06,8750,70.0,0.3896290288,0.29654960799958846,0.901271,0.005640118400000005,0.4176992,0.15754381423337446,0.54643,-0.012967487999999971,0.7611056286213751,0.37716959252922183,0.009303803199999988
bidmc_06,9375,75.0,0.43629573911999997,0.33083473194192686,1.0,0.08769330223999999,0.41722696800000003,0.15470781413751206,0.5073300000000001,0.012023023999999993,0.7582791762533284,0.37079924166903416,0.04985816311999999
bidmc_06,10000,80.0,0.4659152124,0.3522459813267433,1.0,-0.028454355680000043,0.423646584,0.1539426050368479,0.52492,0.0008162080000000405,0.7560285990313036,0.36337420736205095,0.014635281840000042
bidmc_06,10625,85.0,0.41876445008,0.3284573024987945,1.0,-0.06584716895999998,0.4208539280000001,0.15475938108331533,0.52492,-0.006401519999999994,0.7843467087269181,0.36772619443656673,0.03612434447999999
bidmc_06,11250,90.0,0.47142674016,0.3222649227872209,1.0,0.17117174912,0.415202392,0.1527612378173152,0.522,-0.004901552000000087,0.6835934658360281,0.3679190506644879,0.08803665056000004
bidmc_06,11875,95.0,0.47975205296000006,0.30816152201496244,1.0,-0.15452112351999997,0.416534256,0.15231124526772954,0.52982,0.007565280000000063,0.6423336341762806,0.36566231327061915,0.08104320176000002
bidmc_06,12500,100.0,0.4050033,0.28798747805950525,0.969697,0.005023617599999974,0.419935344,0.15693577854524335,0.51222,-0.0007631040000000144,0.7110726430793581,0.37371325627686885,0.0028933607999999944
bidmc_06,13125,105.0,0.44355117359999996,0.31207598288366034,0.953079,0.07207212959999998,0.419451192,0.15800940278381898,0.5132,-0.00020519999999996097,0.7035834823009881,0.376704200854001,0.03613866479999997
bidmc_06,13750,110.0,0.45444772319999993,0.32735252823775923,0.922776,-0.050279030399999924,0.416213432,0.15852466665948672,0.51222,-0.006270319999999996,0.7203288545574669,0.38087258507049254,0.02827467519999996
bidmc_06,14375,115.0,0.42643038400000005,0.31653102568337993,0.8915,-0.005755648000000058,0.410762736,0.15529406182347832,0.51222,-0.004631072000000069,0.7422789165146905,0.37806176206236064,0.0051933600000000635
bidmc_06,15000,120.0,0.46087347200000006,0.3175020598732947,0.89638,0.07464182400000002,0.413444392,0.1528146309555153,0.50635,0.009994384000000023,0.6889122291704945,0.3696126112720476,0.04231810400000002
bidmc_06,15625,125.0,0.45165210399999994,0.32269490593309647,0.9022479999999999,-0.09308455999999998,0.41770177599999997,0.1551227586367836,0.51417,-0.001479616000000017,0.7144751205630959,0.3713711460629211,0.047282088
bidmc_06,16250,130.0,0.38835974640000004,0.31167457007132116,0.917889,-0.03350015519999999,0.42084064,0.15758283718244953,0.55816,0.007757344000000055,0.8025388069223289,0.37444687550987005,0.020628749600000024
bidmc_06,16875,135.0,0.42272680015999997,0.33365984087340506,0.9931574,0.10223426272000002,0.4240874479999999,0.1573650696009991,0.55816,-0.0012637280000000195,0.7893018645736495,0.37106662617935576,0.05174899536000002
bidmc_06,17500,140.0,0.45240341456000005,0.33801375892102514,0.9931574,-0.04288103392000003,0.420230656,0.15719124646025828,0.5083099999999999,-0.006449855999999976,0.7471495592052764,0.3740585560747435,0.024665444960000005
bidmc_06,18125,145.0,0.3985851768,0.3060296788655322,0.911046,-0.06475544159999996,0.4186408880000001,0.15857444529536105,0.5083099999999999,0.0032703199999999932,0.7677879883403227,0.3787830359091086,0.03401288079999998
bidmc_06,18750,150.0,0.4037223416,0.3043520753647251,0.925709,0.07502977119999993,0.41935484800000006,0.15887455280194152,0.5171,-0.0018424000000000218,0.7538629650654936,0.37885379102175176,0.038436085599999975
bidmc_06,19375,155.0,0.4110677976,0.3246707141552891,0.930596,-0.06033885919999993,0.41801994400000003,0.15573395589683345,0.56207,-0.0008274080000000295,0.7898208670929519,0.37255060573432286,0.03058313359999998
bidmc_06,20000,160.0,0.395308616,0.3179328688302959,0.930596,0.028820495999999973,0.41389165599999994,0.15488604713574963,0.56207,-0.0074291679999999305,0.8042629269870732,0.3742179159026916,0.018124831999999952
bidmc_06,20625,165.0,0.45502077599999996,0.3243623363225111,0.89247,0.090603824,0.41589918400000003,0.15631767110437048,0.51124,0.011444224000000058,0.7128501391162236,0.3758538156943217,0.05102402400000003
bidmc_06,21250,170.0,0.45430360000000003,0.3306369536150489,0.89834,-0.09203817599999997,0.420328488,0.15494202529679885,0.50146,-0.0025856160000000683,0.7277869376956537,0.36862040308910915,0.04731189600000002
bidmc_06,21875,175.0,0.3846364808,0.3136442647342649,0.931574,-0.04729606240000006,0.417761096,0.15683177789210573,0.54253,-0.0025491679999999906,0.8154282418913578,0.37540930446716675,0.024922615200000026
bidmc_06,22500,180.0,0.40449250400000003,0.3148339825923174,0.931574,0.08700810879999998,0.41544636,0.15824350123866193,0.54253,-0.0020803040000000883,0.7783412575948744,0.3808990415504432,0.044544206400000036
bidmc_06,23125,185.0,0.42059897599999996,0.3212763383953338,0.922776,-0.05479516479999996,0.41341008,0.1553699850107272,0.50929,-0.001992255999999859,0.7638524886538126,0.37582443366231794,0.02839371039999991
bidmc_06,23750,190.0,0.3887140232,0.31072832393483585,0.922776,-0.008974740799999992,0.411910984,0.1549739005760381,0.5044,-0.0010059360000001516,0.7993730763911362,0.3762306186654626,0.004990338400000072
bidmc_06,24375,195.0,0.43939699039999996,0.32175340728844865,0.915934,0.1103406751999999,0.415081912,0.15767368983398675,0.51418,0.007347792000000131,0.7322596241178637,0.37986071041630054,0.05884423360000002
bidmc_06,25000,200.0,0.4580652,0.33487737991856065,0.8944300000000001,-0.07300425599999988,0.419492504,0.15778188257683448,0.5151600000000001,0.0014733919999999623,0.7310676489960636,0.3761247339287392,0.03723882399999992
bidmc_06,25625,205.0,0.4033257768,0.3251465535859997,0.917889,-0.036474590400000007,0.41943467199999995,0.15711027292272273,0.5073399999999999,-0.0015890560000000886,0.8061615848214115,0.3745753721269629,0.019031823200000048
bidmc_06,26250,210.0,0.413831452,0.31942954757986386,0.917889,0.05748594079999997,0.41652948799999995,0.15699446793227415,0.50245,-0.004221312000000033,0.7718813399869953,0.37690990805041424,0.0308536264
bidmc_06,26875,215.0,0.395504216,0.325782998620097,0.989247,-0.09414041280000002,0.41388624799999996,0.15495234271711575,0.5044,-0.0010651679999998942,0.8237135325671584,0.3743829834475011,0.047602790399999956
bidmc_06,27500,220.0,0.37307530872,0.32834755380692837,1.0,0.04928259824000003,0.41534551200000003,0.15478989639668947,0.5073300000000001,0.003983695999999981,0.8801082945563256,0.37267652893324277,0.026633147120000006
bidmc_06,28125,225.0,0.46805953591999994,0.33030537056863374,1.0,0.1406858561599999,0.416943024,0.15730448306992215,0.50831,-0.0007886720000000458,0.7056894252351344,0.37727962032122125,0.07073726407999997
bidmc_06,28750,230.0,0.49085524,0.3212133431738825,0.8739,-0.09509444799999994,0.415994328,0.15861813820943813,0.5112399999999999,-0.0011087199999998965,0.6543939284012821,0.3812978837335359,0.04810158399999992
bidmc_06,29375,235.0,0.42353857452800003,0.33175440569119163,1.0,-0.03953888294399999,0.416850752,0.15767103935141197,0.5112399999999999,0.002821567999999941,0.7832902180649933,0.3782424773193996,0.021180225471999964
bidmc_06,30000,240.0,0.42970786172799996,0.32845158532798346,1.0,0.051877457344000066,0.41623304000000005,0.15366777661500278,0.50147,-0.0040569919999999815,0.7643584170155863,0.3691859911673797,0.027967224672000024
bidmc_06,30625,245.0,0.46508632879999995,0.3316129204352953,0.97654,0.01887947679999996,0.41459785600000004,0.15464157323890385,0.5132,0.0007866240000000135,0.7130121590087392,0.3729908343956063,0.009833050399999987
bidmc_06,31250,250.0,0.4160236152,0.32771312542024544,0.97654,-0.11700490400000002,0.43379550400000005,0.15765080057915465,0.736074,0.03760867200000001,0.7877253254899362,0.36342109520355803,0.07730678800000002
bidmc_06,31875,255.0,0.432243244,0.31384838688388966,0.945259,0.14944416160000001,0.43827659199999996,0.15763847310453097,0.736074,-0.02864649600000002,0.7260903788550847,0.35967723648653016,0.08904532880000002
bidmc_06,32500,260.0,0.4827972608,0.31636703176873154,0.967742,-0.048336128000000034,0.416090136,0.15653456969008955,0.51125,-0.015726416000000076,0.6552779027093205,0.376202605984112,0.032031272000000055
bidmc_06,33125,265.0,0.41340380160000006,0.2916314403260729,0.967742,-0.09045079039999998,0.41146676800000004,0.155306518169825,0.51125,0.006479680000000099,0.7054379610429587,0.3774451615608078,0.04846523520000004
bidmc_06,33750,270.0,0.44716497120000004,0.30341979089817456,0.913001,0.1579731296000001,0.419745024,0.15647093855933575,0.50342,0.010076831999999925,0.678539536637654,0.3727752726952233,0.08402498080000001
bidmc_06,34375,275.0,0.421186414512,0.33658504341425355,1.0,-0.2099302429760001,0.42420863200000003,0.1556654648527045,0.50147,-0.0011496159999999644,0.7991336678571719,0.3669541026656945,0.10553992948800003
bidmc_06,35000,280.0,0.35507494251199995,0.3038678229066347,1.0,0.07770729897599993,0.41420984800000005,0.1574491988422199,0.522,-0.018847952,0.8557826271104396,0.3801184821750972,0.048277625487999964
bidmc_06,35625,285.0,0.46667300799999994,0.29659221443392736,0.924731,0.14548883200000012,0.40950924800000005,0.15669092039066748,0.5239499999999999,0.009446752000000058,0.6355447471887644,0.3826300346717269,0.07746779200000009
bidmc_06,36250,290.0,0.4697625768,0.3135286002836553,0.945259,-0.13930969440000002,0.41955264800000003,0.15528389197527248,0.51417,0.010640048000000013,0.6674178581902677,0.37011689140472565,0.07497487120000002
bidmc_06,36875,295.0,0.3896335456,0.3042790511862319,0.945259,-0.020948367999999995,0.42297239200000003,0.15649138278575703,0.50929,-0.003800560000000064,0.7809344798153645,0.3699792605057224,0.01237446400000003
bidmc_06,37500,300.0,0.4299635496,0.3004258377221632,0.9071359999999999,0.10160837599999994,0.42015723200000005,0.1568649459636479,0.49658,-0.001829759999999958,0.6987223435086733,0.373347310647594,0.05171906799999995
bidmc_06,38125,305.0,0.4392194448,0.3032061741915619,0.920821,-0.08309658559999994,0.4213866,0.1563442222856988,0.5131899999999999,0.0042884959999999195,0.6903280067703302,0.3710223610891702,0.04369254079999993
bidmc_06,38750,310.0,0.388908672,0.2903822421170792,0.920821,-0.017524960000000034,0.41848286399999995,0.15360816742282132,0.52688,-0.0100959679999999,0.7466572909430733,0.36705875814323236,0.013810463999999967
bidmc_06,39375,315.0,0.44403612000000003,0.31132348073742466,0.8817200000000001,0.12777985599999997,0.41871675199999997,0.15159045055467874,0.52688,0.01056374399999993,0.701120394478337,0.36203492646444746,0.06917179999999995
bidmc_06,40000,320.0,0.45501630000000004,0.32359140400332825,0.915934,-0.10581949599999996,0.42352619199999997,0.1536288701844127,0.5063599999999999,-0.0009448640000000452,0.7111628590898154,0.36273673352338787,0.05338218
bidmc_06,40625,325.0,0.3876425072,0.3000903838630201,0.915934,-0.02892808960000004,0.42012202400000004,0.1564853537703239,0.49951,-0.005863471999999981,0.7741401011218075,0.3724750723738576,0.01739578080000001
bidmc_06,41250,330.0,0.43102948319999995,0.30001115004458373,0.913978,0.11570204160000003,0.41869879199999993,0.1576749595020742,0.49951,0.0030170079999999877,0.6960323265706878,0.376582368834982,0.05935952480000001
bidmc_06,41875,335.0,0.40920583472000005,0.30775077826485003,1.0,-0.15934933856,0.41981088,0.15316604632210626,0.49951,-0.00079283199999991,0.7520665642728784,0.3648444782508448,0.08007108527999995
bidmc_06,42500,340.0,0.38684968504,0.3108154150239365,1.0,0.11463703920000001,0.42010498399999996,0.15058198163618297,0.522,0.0013810399999999445,0.8034506000468851,0.3584380784163812,0.05800903959999998
bidmc_06,43125,345.0,0.49833127832,0.31428847392101755,1.0,0.10832614735999996,0.4230828240000001,0.15519163054941149,0.522,0.004574640000000019,0.6306805470850912,0.3668105981509032,0.05645039367999999
bidmc_06,43750,350.0,0.40159299257599995,0.3393460493862441,1.0,-0.3018027188479999,0.423253208,0.15710236306112246,0.51027,-0.004233871999999972,0.8449978228248131,0.3711773210796347,0.15301829542399994
bidmc_06,44375,355.0,0.386755672576,0.3191067020190022,1.0,0.27212807884799994,0.4169697679999999,0.1573537576017369,0.5044,-0.008333007999999975,0.825083895498392,0.377373594692223,0.14023054342399996
bidmc_06,45000,360.0,0.50105003912,0.30267319383681585,1.0,-0.043539345760000014,0.412393448,0.15385840190990968,0.5044,-0.0008196320000000146,0.6040765714574771,0.37308553171867553,0.022179488880000015
bidmc_06,45625,365.0,0.4592718648,0.3356563103943466,1.0,-0.04001700287999993,0.4171558080000001,0.15291203417398885,0.5053799999999999,0.010344351999999946,0.7308428956291926,0.3665576858426552,0.025180677439999938
bidmc_06,46250,370.0,0.41927119368000004,0.3096457381491164,1.0,-0.03998433936000001,0.420165672,0.15709883797122248,0.5073399999999999,-0.004324623999999944,0.7385315382623405,0.37389647594710346,0.022154481679999977
bidmc_06,46875,375.0,0.43043518568,0.3126710935865294,1.0,0.06231232336000003,0.418854336,0.15931968284150927,0.5063599999999999,0.0017019520000000066,0.7264052233261333,0.3803692328787935,0.03200713768000002
bidmc_06,47500,380.0,0.43244252408,0.33265982081772677,1.0,-0.05829764656000003,0.41459156,0.1570183830472292,0.50733,-0.010227504000000054,0.7692561046565385,0.37872937962810815,0.03426257528000004
bidmc_06,48125,385.0,0.40741503120000006,0.3091315271050791,0.9599219999999999,0.008242660799999912,0.41491672799999996,0.15648518962590044,0.50635,0.010877840000000027,0.7587613236390465,0.37714751399077473,0.00956025039999997
bidmc_06,48750,390.0,0.4247437712,0.29754895390268615,0.935484,0.026414819199999995,0.420780408,0.15743064679811722,0.50635,0.000849519999999937,0.7005358843195246,0.37413878989187,0.013632169599999966
bidmc_06,49375,395.0,0.44939124817600007,0.33076540708447083,1.0,0.022880134752000014,0.41819037600000003,0.1570863758429057,0.5073399999999999,-0.006029583999999977,0.7360282880423202,0.37563274820594506,0.014454859375999995
bidmc_06,50000,400.0,0.45394654577599997,0.32735544852019804,1.0,-0.013769539552000054,0.41223910399999997,0.15558712430274294,0.5063599999999999,-0.005872959999999983,0.7211305613748847,0.3774187003958813,0.009821249776000018
bidmc_06,50625,405.0,0.47456121600000006,0.3074624952019373,0.8827,0.05499888000000014,0.4138844719999999,0.15277870416494968,0.5053799999999999,0.009163695999999888,0.6478865885984005,0.36913280243127194,0.03208128800000001
bidmc_06,51250,410.0,0.46409460799999996,0.31218286434800735,0.89247,-0.07593209600000012,0.422294352,0.15453104375943397,0.51027,0.0076560640000001845,0.6726692926342182,0.36593119727122636,0.04179408000000015
bidmc_06,51875,415.0,0.3919648872,0.28523539680148685,0.903226,-0.06832734559999992,0.42379115999999994,0.1571608011626767,0.51027,-0.004662448000000041,0.7277046450114827,0.37084405044840074,0.03649489679999998
bidmc_06,52500,420.0,0.399521468176,0.3086183945556809,1.0,0.083440507552,0.42324137599999995,0.15755335080418512,0.5073300000000001,0.003562880000000046,0.7724681817387214,0.3722532518912642,0.04350169377600002
